Data from Dry_Prop_25_3_HRD10591_00019.txt Node
Date: Wed Dec 03 14:41:40 EST 2025
User: Yrep
Spectrometer: HR+D1059
Trigger mode: 1
Integration Time (sec): 1.000000E-1
Scans to average: 1
Electric dark correction enabled: true
Nonlinearity correction enabled: false
Boxcar width: 0
XAxis mode: Wavelengths
Number of Pixels in Spectrum: 2048
>>>>>Begin Spectral Data<<<<<
223.165	-21.44
223.4	-21.44
223.635	-21.44
223.869	-24.44
224.104	-16.44
224.338	-7.44
224.573	-27.44
224.808	-14.44
225.042	-5.44
225.277	-1.44
225.511	-6.44
225.746	10.56
225.98	-0.44
226.215	20.56
226.449	28.56
226.683	14.56
226.918	28.56
227.152	22.56
227.387	24.56
227.621	36.56
227.856	42.56
228.09	47.56
228.324	39.56
228.559	69.56
228.793	63.56
229.027	66.56
229.262	62.56
229.496	64.56
229.73	75.56
229.964	80.56
230.199	74.56
230.433	78.56
230.667	60.56
230.901	70.56
231.136	75.56
231.37	74.56
231.604	74.56
231.838	79.56
232.072	74.56
232.306	77.56
232.541	74.56
232.775	91.56
233.009	76.56
233.243	63.56
233.477	66.56
233.711	81.56
233.945	76.56
234.179	81.56
234.413	77.56
234.647	67.56
234.881	86.56
235.115	77.56
235.349	80.56
235.583	67.56
235.817	76.56
236.051	64.56
236.285	70.56
236.519	79.56
236.753	93.56
236.987	84.56
237.221	65.56
237.455	81.56
237.689	84.56
237.922	92.56
238.156	71.56
238.39	84.56
238.624	66.56
238.858	69.56
239.091	81.56
239.325	76.56
239.559	90.56
239.793	84.56
240.027	76.56
240.26	66.56
240.494	78.56
240.728	76.56
240.961	64.56
241.195	81.56
241.429	64.56
241.662	84.56
241.896	79.56
242.13	66.56
242.363	76.56
242.597	67.56
242.83	85.56
243.064	79.56
243.298	83.56
243.531	68.56
243.765	85.56
243.998	82.56
244.232	66.56
244.465	84.56
244.699	79.56
244.932	84.56
245.166	82.56
245.399	74.56
245.633	77.56
245.866	74.56
246.099	70.56
246.333	76.56
246.566	75.56
246.8	68.56
247.033	71.56
247.266	80.56
247.5	82.56
247.733	86.56
247.966	68.56
248.2	75.56
248.433	80.56
248.666	82.56
248.899	90.56
249.133	69.56
249.366	73.56
249.599	81.56
249.832	82.56
250.066	77.56
250.299	74.56
250.532	75.56
250.765	68.56
250.998	79.56
251.231	78.56
251.465	75.56
251.698	73.56
251.931	78.56
252.164	83.56
252.397	91.56
252.63	66.56
252.863	70.56
253.096	72.56
253.329	74.56
253.562	67.56
253.795	97.56
254.028	66.56
254.261	91.56
254.494	75.56
254.727	96.56
254.96	92.56
255.193	78.56
255.426	79.56
255.659	60.56
255.892	83.56
256.124	83.56
256.357	91.56
256.59	79.56
256.823	80.56
257.056	87.56
257.289	81.56
257.521	71.56
257.754	79.56
257.987	74.56
258.22	85.56
258.452	94.56
258.685	83.56
258.918	75.56
259.151	78.56
259.383	74.56
259.616	76.56
259.849	84.56
260.081	86.56
260.314	75.56
260.547	75.56
260.779	75.56
261.012	75.56
261.244	73.56
261.477	97.56
261.71	90.56
261.942	82.56
262.175	74.56
262.407	79.56
262.64	93.56
262.872	76.56
263.105	77.56
263.337	72.56
263.57	90.56
263.802	84.56
264.035	81.56
264.267	99.56
264.499	70.56
264.732	80.56
264.964	85.56
265.197	72.56
265.429	82.56
265.661	79.56
265.894	92.56
266.126	79.56
266.358	87.56
266.591	91.56
266.823	77.56
267.055	73.56
267.287	85.56
267.52	87.56
267.752	83.56
267.984	71.56
268.216	77.56
268.448	92.56
268.681	74.56
268.913	86.56
269.145	83.56
269.377	81.56
269.609	91.56
269.841	101.56
270.073	74.56
270.306	87.56
270.538	71.56
270.77	82.56
271.002	73.56
271.234	78.56
271.466	81.56
271.698	73.56
271.93	95.56
272.162	73.56
272.394	78.56
272.626	77.56
272.858	75.56
273.09	74.56
273.322	94.56
273.553	76.56
273.785	79.56
274.017	75.56
274.249	81.56
274.481	80.56
274.713	90.56
274.945	88.56
275.176	95.56
275.408	70.56
275.64	85.56
275.872	76.56
276.104	85.56
276.335	91.56
276.567	85.56
276.799	68.56
277.031	74.56
277.262	92.56
277.494	88.56
277.726	69.56
277.957	73.56
278.189	75.56
278.421	83.56
278.652	84.56
278.884	85.56
279.115	86.56
279.347	74.56
279.579	77.56
279.81	75.56
280.042	98.56
280.273	90.56
280.505	88.56
280.736	71.56
280.968	91.56
281.199	96.56
281.431	91.56
281.662	83.56
281.894	85.56
282.125	79.56
282.356	87.56
282.588	84.56
282.819	86.56
283.051	82.56
283.282	87.56
283.513	82.56
283.745	76.56
283.976	83.56
284.207	84.56
284.439	75.56
284.67	83.56
284.901	77.56
285.132	95.56
285.364	77.56
285.595	94.56
285.826	87.56
286.057	95.56
286.288	77.56
286.52	95.56
286.751	83.56
286.982	80.56
287.213	87.56
287.444	82.56
287.675	73.56
287.906	92.56
288.138	78.56
288.369	87.56
288.6	100.56
288.831	83.56
289.062	90.56
289.293	80.56
289.524	79.56
289.755	85.56
289.986	95.56
290.217	87.56
290.448	81.56
290.679	83.56
290.91	97.56
291.141	98.56
291.371	89.56
291.602	79.56
291.833	78.56
292.064	86.56
292.295	103.56
292.526	90.56
292.757	84.56
292.987	94.56
293.218	83.56
293.449	78.56
293.68	88.56
293.91	83.56
294.141	76.56
294.372	91.56
294.603	78.56
294.833	80.56
295.064	78.56
295.295	78.56
295.525	75.56
295.756	84.56
295.987	82.56
296.217	79.56
296.448	69.56
296.679	85.56
296.909	71.56
297.14	95.56
297.37	84.56
297.601	79.56
297.831	86.56
298.062	90.56
298.292	78.56
298.523	83.56
298.753	96.56
298.984	82.56
299.214	85.56
299.445	83.56
299.675	90.56
299.905	91.56
300.136	73.56
300.366	73.56
300.597	96.56
300.827	92.56
301.057	64.56
301.288	86.56
301.518	81.56
301.748	93.56
301.979	104.56
302.209	79.56
302.439	92.56
302.669	79.56
302.9	90.56
303.13	94.56
303.36	85.56
303.59	77.56
303.82	83.56
304.051	89.56
304.281	84.56
304.511	80.56
304.741	90.56
304.971	84.56
305.201	97.56
305.431	80.56
305.661	84.56
305.891	68.56
306.121	83.56
306.352	89.56
306.582	87.56
306.812	87.56
307.042	92.56
307.272	84.56
307.502	90.56
307.731	87.56
307.961	82.56
308.191	86.56
308.421	75.56
308.651	89.56
308.881	84.56
309.111	81.56
309.341	78.56
309.571	77.56
309.8	74.56
310.03	77.56
310.26	91.56
310.49	84.56
310.72	77.56
310.949	73.56
311.179	87.56
311.409	75.56
311.639	78.56
311.868	81.56
312.098	84.56
312.328	82.56
312.557	95.56
312.787	94.56
313.017	77.56
313.246	90.56
313.476	78.56
313.706	87.56
313.935	101.56
314.165	88.56
314.394	94.56
314.624	80.56
314.853	79.56
315.083	86.56
315.312	82.56
315.542	77.56
315.771	71.56
316.001	94.56
316.23	90.56
316.46	84.56
316.689	92.56
316.919	70.56
317.148	94.56
317.377	94.56
317.607	79.56
317.836	85.56
318.065	71.56
318.295	73.56
318.524	86.56
318.753	94.56
318.983	84.56
319.212	78.56
319.441	81.56
319.67	94.56
319.9	66.56
320.129	81.56
320.358	88.56
320.587	80.56
320.816	87.56
321.046	74.56
321.275	86.56
321.504	91.56
321.733	83.56
321.962	82.56
322.191	81.56
322.42	83.56
322.649	76.56
322.878	77.56
323.108	70.56
323.337	92.56
323.566	90.56
323.795	71.56
324.024	84.56
324.253	85.56
324.482	84.56
324.71	99.56
324.939	93.56
325.168	78.56
325.397	83.56
325.626	74.56
325.855	85.56
326.084	90.56
326.313	83.56
326.542	92.56
326.77	78.56
326.999	99.56
327.228	92.56
327.457	87.56
327.686	92.56
327.914	99.56
328.143	74.56
328.372	74.56
328.6	84.56
328.829	77.56
329.058	75.56
329.287	87.56
329.515	77.56
329.744	86.56
329.972	73.56
330.201	70.56
330.43	79.56
330.658	85.56
330.887	78.56
331.115	92.56
331.344	84.56
331.572	94.56
331.801	83.56
332.03	74.56
332.258	75.56
332.486	83.56
332.715	72.56
332.943	87.56
333.172	77.56
333.4	72.56
333.629	79.56
333.857	98.56
334.085	102.56
334.314	70.56
334.542	78.56
334.771	75.56
334.999	84.56
335.227	78.56
335.455	88.56
335.684	76.56
335.912	82.56
336.14	81.56
336.369	72.56
336.597	77.56
336.825	84.56
337.053	84.56
337.281	94.56
337.51	94.56
337.738	84.56
337.966	73.56
338.194	85.56
338.422	73.56
338.65	90.56
338.878	80.56
339.106	76.56
339.334	99.56
339.562	82.56
339.79	92.56
340.018	92.56
340.246	82.56
340.474	71.56
340.702	72.56
340.93	88.56
341.158	84.56
341.386	75.56
341.614	78.56
341.842	78.56
342.07	87.56
342.298	86.56
342.526	83.56
342.754	86.56
342.981	85.56
343.209	92.56
343.437	99.56
343.665	77.56
343.893	83.56
344.12	80.56
344.348	76.56
344.576	61.56
344.804	83.56
345.031	92.56
345.259	82.56
345.487	71.56
345.714	75.56
345.942	78.56
346.17	80.56
346.397	84.56
346.625	80.56
346.853	83.56
347.08	75.56
347.308	82.56
347.535	79.56
347.763	82.56
347.99	95.56
348.218	90.56
348.445	86.56
348.673	77.56
348.9	98.56
349.128	85.56
349.355	77.56
349.583	71.56
349.81	88.56
350.037	87.56
350.265	64.56
350.492	79.56
350.72	87.56
350.947	82.56
351.174	84.56
351.402	84.56
351.629	82.56
351.856	80.56
352.083	80.56
352.311	70.56
352.538	75.56
352.765	67.56
352.992	83.56
353.22	92.56
353.447	95.56
353.674	90.56
353.901	81.56
354.128	72.56
354.355	71.56
354.583	72.56
354.81	80.56
355.037	85.56
355.264	82.56
355.491	81.56
355.718	86.56
355.945	79.56
356.172	80.56
356.399	66.56
356.626	75.56
356.853	78.56
357.08	91.56
357.307	94.56
357.534	86.56
357.761	80.56
357.988	79.56
358.215	80.56
358.441	87.56
358.668	91.56
358.895	72.56
359.122	81.56
359.349	90.56
359.576	95.56
359.802	78.56
360.029	100.56
360.256	86.56
360.483	84.56
360.709	80.56
360.936	82.56
361.163	102.56
361.39	96.56
361.616	97.56
361.843	84.56
362.07	83.56
362.296	94.56
362.523	96.56
362.749	85.56
362.976	94.56
363.203	80.56
363.429	90.56
363.656	98.56
363.882	83.56
364.109	79.56
364.335	91.56
364.562	85.56
364.788	84.56
365.015	95.56
365.241	82.56
365.468	90.56
365.694	87.56
365.92	90.56
366.147	95.56
366.373	90.56
366.599	82.56
366.826	97.56
367.052	86.56
367.278	78.56
367.505	84.56
367.731	84.56
367.957	80.56
368.184	78.56
368.41	87.56
368.636	81.56
368.862	85.56
369.089	69.56
369.315	85.56
369.541	86.56
369.767	99.56
369.993	80.56
370.219	72.56
370.445	76.56
370.672	84.56
370.898	79.56
371.124	75.56
371.35	93.56
371.576	77.56
371.802	75.56
372.028	75.56
372.254	66.56
372.48	65.56
372.706	75.56
372.932	91.56
373.158	93.56
373.384	94.56
373.61	78.56
373.835	83.56
374.061	97.56
374.287	79.56
374.513	80.56
374.739	84.56
374.965	83.56
375.191	83.56
375.416	78.56
375.642	72.56
375.868	73.56
376.094	79.56
376.319	84.56
376.545	79.56
376.771	81.56
376.997	83.56
377.222	88.56
377.448	83.56
377.674	86.56
377.899	82.56
378.125	85.56
378.35	78.56
378.576	83.56
378.802	79.56
379.027	94.56
379.253	87.56
379.478	85.56
379.704	73.56
379.929	74.56
380.155	76.56
380.38	73.56
380.606	79.56
380.831	86.56
381.057	92.56
381.282	82.56
381.507	96.56
381.733	80.56
381.958	70.56
382.184	90.56
382.409	93.56
382.634	85.56
382.86	96.56
383.085	81.56
383.31	75.56
383.535	82.56
383.761	73.56
383.986	92.56
384.211	73.56
384.436	75.56
384.662	68.56
384.887	90.56
385.112	85.56
385.337	72.56
385.562	91.56
385.787	86.56
386.013	78.56
386.238	78.56
386.463	77.56
386.688	91.56
386.913	86.56
387.138	90.56
387.363	75.56
387.588	78.56
387.813	87.56
388.038	71.56
388.263	91.56
388.488	77.56
388.713	88.56
388.938	76.56
389.163	86.56
389.387	71.56
389.612	75.56
389.837	81.56
390.062	72.56
390.287	73.56
390.512	72.56
390.736	86.56
390.961	97.56
391.186	85.56
391.411	75.56
391.636	94.56
391.86	86.56
392.085	91.56
392.31	86.56
392.534	74.56
392.759	73.56
392.984	86.56
393.208	87.56
393.433	81.56
393.658	85.56
393.882	79.56
394.107	69.56
394.331	93.56
394.556	92.56
394.78	88.56
395.005	89.56
395.229	84.56
395.454	84.56
395.678	79.56
395.903	82.56
396.127	86.56
396.352	76.56
396.576	83.56
396.801	80.56
397.025	75.56
397.249	79.56
397.474	91.56
397.698	84.56
397.922	69.56
398.147	76.56
398.371	78.56
398.595	86.56
398.82	70.56
399.044	81.56
399.268	79.56
399.492	71.56
399.717	85.56
399.941	83.56
400.165	76.56
400.389	90.56
400.613	77.56
400.837	75.56
401.062	79.56
401.286	75.56
401.51	76.56
401.734	62.56
401.958	82.56
402.182	71.56
402.406	84.56
402.63	76.56
402.854	79.56
403.078	83.56
403.302	87.56
403.526	68.56
403.75	92.56
403.974	89.56
404.198	99.56
404.422	99.56
404.645	87.56
404.869	83.56
405.093	76.56
405.317	76.56
405.541	81.56
405.765	80.56
405.988	94.56
406.212	86.56
406.436	78.56
406.66	95.56
406.883	78.56
407.107	72.56
407.331	69.56
407.555	74.56
407.778	92.56
408.002	73.56
408.226	71.56
408.449	82.56
408.673	77.56
408.896	92.56
409.12	79.56
409.344	97.56
409.567	73.56
409.791	88.56
410.014	85.56
410.238	72.56
410.461	74.56
410.685	71.56
410.908	77.56
411.132	76.56
411.355	85.56
411.578	82.56
411.802	73.56
412.025	75.56
412.249	73.56
412.472	80.56
412.695	72.56
412.919	76.56
413.142	80.56
413.365	91.56
413.589	75.56
413.812	64.56
414.035	77.56
414.258	76.56
414.482	81.56
414.705	71.56
414.928	72.56
415.151	79.56
415.374	80.56
415.597	77.56
415.821	88.56
416.044	77.56
416.267	73.56
416.49	81.56
416.713	77.56
416.936	78.56
417.159	80.56
417.382	93.56
417.605	91.56
417.828	85.56
418.051	72.56
418.274	79.56
418.497	82.56
418.72	71.56
418.943	90.56
419.166	84.56
419.389	77.56
419.611	83.56
419.834	84.56
420.057	87.56
420.28	70.56
420.503	79.56
420.726	84.56
420.948	74.56
421.171	71.56
421.394	78.56
421.617	86.56
421.839	90.56
422.062	86.56
422.285	68.56
422.507	90.56
422.73	78.56
422.953	79.56
423.175	84.56
423.398	87.56
423.621	81.56
423.843	84.56
424.066	72.56
424.288	87.56
424.511	83.56
424.733	94.56
424.956	80.56
425.178	84.56
425.401	73.56
425.623	86.56
425.846	73.56
426.068	77.56
426.291	86.56
426.513	84.56
426.735	86.56
426.958	83.56
427.18	88.56
427.402	93.56
427.625	74.56
427.847	77.56
428.069	81.56
428.292	95.56
428.514	82.56
428.736	67.56
428.958	79.56
429.181	96.56
429.403	87.56
429.625	71.56
429.847	86.56
430.069	71.56
430.292	71.56
430.514	84.56
430.736	79.56
430.958	70.56
431.18	82.56
431.402	75.56
431.624	88.56
431.846	73.56
432.068	78.56
432.29	76.56
432.512	76.56
432.734	99.56
432.956	74.56
433.178	76.56
433.4	65.56
433.622	79.56
433.844	73.56
434.066	80.56
434.287	91.56
434.509	72.56
434.731	78.56
434.953	81.56
435.175	85.56
435.397	73.56
435.618	73.56
435.84	93.56
436.062	84.56
436.284	80.56
436.505	74.56
436.727	77.56
436.949	99.56
437.17	74.56
437.392	84.56
437.614	76.56
437.835	70.56
438.057	84.56
438.278	81.56
438.5	75.56
438.721	93.56
438.943	76.56
439.165	88.56
439.386	74.56
439.608	76.56
439.829	85.56
440.05	77.56
440.272	82.56
440.493	96.56
440.715	81.56
440.936	81.56
441.158	95.56
441.379	74.56
441.6	74.56
441.822	81.56
442.043	77.56
442.264	93.56
442.486	83.56
442.707	75.56
442.928	91.56
443.149	84.56
443.371	84.56
443.592	68.56
443.813	79.56
444.034	85.56
444.255	85.56
444.476	82.56
444.698	85.56
444.919	79.56
445.14	147.56
445.361	123.56
445.582	89.56
445.803	69.56
446.024	79.56
446.245	83.56
446.466	92.56
446.687	69.56
446.908	80.56
447.129	77.56
447.35	76.56
447.571	87.56
447.792	83.56
448.013	94.56
448.234	83.56
448.455	92.56
448.675	85.56
448.896	88.56
449.117	97.56
449.338	92.56
449.559	83.56
449.779	75.56
450	87.56
450.221	82.56
450.442	84.56
450.662	86.56
450.883	72.56
451.104	64.56
451.324	72.56
451.545	83.56
451.766	75.56
451.986	96.56
452.207	82.56
452.428	99.56
452.648	98.56
452.869	94.56
453.089	79.56
453.31	94.56
453.53	86.56
453.751	94.56
453.971	85.56
454.192	84.56
454.412	75.56
454.633	87.56
454.853	76.56
455.073	84.56
455.294	90.56
455.514	92.56
455.734	79.56
455.955	69.56
456.175	92.56
456.395	84.56
456.616	79.56
456.836	79.56
457.056	74.56
457.276	78.56
457.497	66.56
457.717	77.56
457.937	69.56
458.157	84.56
458.377	86.56
458.598	71.56
458.818	73.56
459.038	87.56
459.258	78.56
459.478	81.56
459.698	95.56
459.918	91.56
460.138	88.56
460.358	87.56
460.578	83.56
460.798	73.56
461.018	88.56
461.238	75.56
461.458	84.56
461.678	92.56
461.898	66.56
462.118	79.56
462.338	76.56
462.558	82.56
462.777	79.56
462.997	74.56
463.217	86.56
463.437	85.56
463.657	83.56
463.876	84.56
464.096	95.56
464.316	70.56
464.536	73.56
464.755	93.56
464.975	86.56
465.195	86.56
465.414	81.56
465.634	86.56
465.854	80.56
466.073	80.56
466.293	74.56
466.512	77.56
466.732	78.56
466.951	84.56
467.171	85.56
467.391	84.56
467.61	82.56
467.829	76.56
468.049	79.56
468.268	77.56
468.488	70.56
468.707	76.56
468.927	80.56
469.146	84.56
469.365	83.56
469.585	91.56
469.804	78.56
470.023	92.56
470.243	77.56
470.462	90.56
470.681	96.56
470.901	78.56
471.12	88.56
471.339	80.56
471.558	89.56
471.777	92.56
471.997	76.56
472.216	81.56
472.435	74.56
472.654	87.56
472.873	86.56
473.092	96.56
473.311	77.56
473.53	84.56
473.749	103.56
473.968	82.56
474.187	84.56
474.406	67.56
474.625	78.56
474.844	81.56
475.063	77.56
475.282	81.56
475.501	79.56
475.72	78.56
475.939	86.56
476.158	79.56
476.377	82.56
476.596	77.56
476.814	100.56
477.033	90.56
477.252	79.56
477.471	71.56
477.69	72.56
477.908	86.56
478.127	86.56
478.346	87.56
478.564	83.56
478.783	78.56
479.002	87.56
479.22	85.56
479.439	82.56
479.658	54.56
479.876	72.56
480.095	91.56
480.313	86.56
480.532	79.56
480.751	92.56
480.969	82.56
481.188	79.56
481.406	85.56
481.624	83.56
481.843	75.56
482.061	85.56
482.28	71.56
482.498	83.56
482.717	80.56
482.935	93.56
483.153	90.56
483.372	92.56
483.59	84.56
483.808	81.56
484.027	82.56
484.245	87.56
484.463	95.56
484.681	93.56
484.9	86.56
485.118	87.56
485.336	77.56
485.554	86.56
485.772	93.56
485.99	98.56
486.209	82.56
486.427	82.56
486.645	88.56
486.863	92.56
487.081	99.56
487.299	84.56
487.517	85.56
487.735	86.56
487.953	82.56
488.171	76.56
488.389	84.56
488.607	102.56
488.825	68.56
489.043	72.56
489.261	82.56
489.479	71.56
489.696	81.56
489.914	75.56
490.132	74.56
490.35	80.56
490.568	87.56
490.786	88.56
491.003	84.56
491.221	90.56
491.439	90.56
491.657	83.56
491.874	80.56
492.092	75.56
492.31	83.56
492.527	82.56
492.745	84.56
492.963	71.56
493.18	80.56
493.398	79.56
493.615	85.56
493.833	93.56
494.05	86.56
494.268	78.56
494.485	77.56
494.703	80.56
494.92	84.56
495.138	69.56
495.355	90.56
495.573	95.56
495.79	75.56
496.008	77.56
496.225	77.56
496.442	77.56
496.66	92.56
496.877	80.56
497.094	96.56
497.312	81.56
497.529	70.56
497.746	96.56
497.963	81.56
498.181	66.56
498.398	85.56
498.615	91.56
498.832	80.56
499.049	79.56
499.267	82.56
499.484	81.56
499.701	85.56
499.918	75.56
500.135	75.56
500.352	75.56
500.569	87.56
500.786	91.56
501.003	99.56
501.22	90.56
501.437	83.56
501.654	69.56
501.871	101.56
502.088	79.56
502.305	74.56
502.522	74.56
502.739	72.56
502.956	79.56
503.172	71.56
503.389	82.56
503.606	78.56
503.823	77.56
504.04	83.56
504.256	78.56
504.473	80.56
504.69	76.56
504.907	76.56
505.123	85.56
505.34	76.56
505.557	90.56
505.773	81.56
505.99	89.56
506.207	88.56
506.423	70.56
506.64	91.56
506.856	94.56
507.073	86.56
507.289	82.56
507.506	85.56
507.722	90.56
507.939	81.56
508.155	78.56
508.372	70.56
508.588	69.56
508.805	86.56
509.021	87.56
509.238	91.56
509.454	92.56
509.67	93.56
509.887	92.56
510.103	86.56
510.319	86.56
510.536	84.56
510.752	79.56
510.968	81.56
511.184	80.56
511.401	98.56
511.617	90.56
511.833	91.56
512.049	67.56
512.265	90.56
512.481	80.56
512.698	83.56
512.914	91.56
513.13	66.56
513.346	99.56
513.562	85.56
513.778	78.56
513.994	78.56
514.21	77.56
514.426	65.56
514.642	76.56
514.858	83.56
515.074	81.56
515.29	76.56
515.506	74.56
515.721	79.56
515.937	90.56
516.153	84.56
516.369	77.56
516.585	84.56
516.801	96.56
517.016	99.56
517.232	78.56
517.448	90.56
517.664	81.56
517.879	90.56
518.095	81.56
518.311	76.56
518.527	74.56
518.742	110.56
518.958	81.56
519.173	68.56
519.389	84.56
519.605	79.56
519.82	76.56
520.036	91.56
520.251	78.56
520.467	94.56
520.682	81.56
520.898	84.56
521.113	84.56
521.329	79.56
521.544	82.56
521.76	95.56
521.975	62.56
522.19	83.56
522.406	80.56
522.621	69.56
522.836	69.56
523.052	95.56
523.267	78.56
523.482	82.56
523.698	76.56
523.913	92.56
524.128	85.56
524.343	83.56
524.559	93.56
524.774	71.56
524.989	82.56
525.204	88.56
525.419	80.56
525.634	83.56
525.849	75.56
526.064	90.56
526.28	78.56
526.495	74.56
526.71	90.56
526.925	81.56
527.14	82.56
527.355	95.56
527.57	92.56
527.785	95.56
527.999	88.56
528.214	100.56
528.429	91.56
528.644	91.56
528.859	86.56
529.074	83.56
529.289	87.56
529.503	77.56
529.718	79.56
529.933	75.56
530.148	74.56
530.363	92.56
530.577	81.56
530.792	85.56
531.007	80.56
531.221	88.56
531.436	82.56
531.651	95.56
531.865	82.56
532.08	78.56
532.295	92.56
532.509	79.56
532.724	79.56
532.938	76.56
533.153	95.56
533.367	72.56
533.582	92.56
533.796	79.56
534.011	60.56
534.225	69.56
534.44	85.56
534.654	79.56
534.868	75.56
535.083	84.56
535.297	75.56
535.511	88.56
535.726	96.56
535.94	98.56
536.154	88.56
536.369	85.56
536.583	71.56
536.797	93.56
537.011	93.56
537.225	96.56
537.44	92.56
537.654	88.56
537.868	86.56
538.082	79.56
538.296	81.56
538.51	78.56
538.724	82.56
538.938	75.56
539.153	76.56
539.367	97.56
539.581	76.56
539.795	81.56
540.009	96.56
540.222	84.56
540.436	84.56
540.65	71.56
540.864	87.56
541.078	85.56
541.292	93.56
541.506	85.56
541.72	97.56
541.934	80.56
542.147	101.56
542.361	87.56
542.575	91.56
542.789	70.56
543.002	75.56
543.216	87.56
543.43	83.56
543.644	81.56
543.857	88.56
544.071	76.56
544.285	93.56
544.498	78.56
544.712	90.56
544.925	91.56
545.139	91.56
545.352	76.56
545.566	68.56
545.779	75.56
545.993	84.56
546.206	76.56
546.42	75.56
546.633	87.56
546.847	100.56
547.06	82.56
547.274	85.56
547.487	85.56
547.7	87.56
547.914	83.56
548.127	76.56
548.34	83.56
548.554	82.56
548.767	63.56
548.98	67.56
549.193	86.56
549.407	83.56
549.62	91.56
549.833	78.56
550.046	90.56
550.259	92.56
550.473	81.56
550.686	92.56
550.899	74.56
551.112	80.56
551.325	93.56
551.538	85.56
551.751	84.56
551.964	76.56
552.177	61.56
552.39	73.56
552.603	77.56
552.816	82.56
553.029	74.56
553.242	80.56
553.455	74.56
553.667	96.56
553.88	81.56
554.093	81.56
554.306	74.56
554.519	92.56
554.732	88.56
554.944	98.56
555.157	78.56
555.37	92.56
555.583	67.56
555.795	90.56
556.008	82.56
556.221	87.56
556.433	83.56
556.646	98.56
556.859	96.56
557.071	103.56
557.284	87.56
557.496	72.56
557.709	82.56
557.921	80.56
558.134	92.56
558.346	92.56
558.559	71.56
558.771	73.56
558.984	89.56
559.196	92.56
559.409	87.56
559.621	96.56
559.833	83.56
560.046	77.56
560.258	89.56
560.47	90.56
560.683	85.56
560.895	80.56
561.107	82.56
561.32	72.56
561.532	96.56
561.744	85.56
561.956	90.56
562.168	91.56
562.381	87.56
562.593	83.56
562.805	93.56
563.017	78.56
563.229	80.56
563.441	80.56
563.653	88.56
563.865	94.56
564.077	92.56
564.289	84.56
564.501	85.56
564.713	79.56
564.925	90.56
565.137	85.56
565.349	81.56
565.561	91.56
565.773	94.56
565.985	87.56
566.197	79.56
566.408	79.56
566.62	80.56
566.832	92.56
567.044	79.56
567.255	76.56
567.467	87.56
567.679	98.56
567.891	84.56
568.102	79.56
568.314	76.56
568.526	76.56
568.737	80.56
568.949	82.56
569.161	84.56
569.372	84.56
569.584	80.56
569.795	75.56
570.007	77.56
570.218	86.56
570.43	91.56
570.641	80.56
570.853	75.56
571.064	83.56
571.276	87.56
571.487	93.56
571.698	87.56
571.91	70.56
572.121	74.56
572.333	80.56
572.544	92.56
572.755	83.56
572.966	73.56
573.178	82.56
573.389	84.56
573.6	94.56
573.811	94.56
574.023	90.56
574.234	95.56
574.445	70.56
574.656	72.56
574.867	82.56
575.078	83.56
575.289	84.56
575.501	74.56
575.712	79.56
575.923	86.56
576.134	81.56
576.345	82.56
576.556	91.56
576.767	98.56
576.978	92.56
577.188	100.56
577.399	87.56
577.61	90.56
577.821	94.56
578.032	84.56
578.243	93.56
578.454	84.56
578.665	71.56
578.875	83.56
579.086	78.56
579.297	80.56
579.508	90.56
579.718	89.56
579.929	91.56
580.14	88.56
580.35	93.56
580.561	87.56
580.772	82.56
580.982	82.56
581.193	76.56
581.403	88.56
581.614	91.56
581.825	66.56
582.035	92.56
582.246	74.56
582.456	86.56
582.667	73.56
582.877	92.56
583.087	95.56
583.298	93.56
583.508	82.56
583.719	96.56
583.929	88.56
584.139	85.56
584.35	82.56
584.56	93.56
584.77	77.56
584.981	77.56
585.191	82.56
585.401	88.56
585.611	90.56
585.821	98.56
586.032	100.56
586.242	95.56
586.452	91.56
586.662	99.56
586.872	80.56
587.082	96.56
587.292	85.56
587.502	77.56
587.713	85.56
587.923	83.56
588.133	75.56
588.343	95.56
588.553	107.56
588.762	100.56
588.972	107.56
589.182	130.56
589.392	101.56
589.602	114.56
589.812	116.56
590.022	103.56
590.232	87.56
590.441	88.56
590.651	96.56
590.861	80.56
591.071	82.56
591.281	87.56
591.49	79.56
591.7	92.56
591.91	91.56
592.119	84.56
592.329	101.56
592.539	80.56
592.748	77.56
592.958	97.56
593.167	66.56
593.377	90.56
593.587	93.56
593.796	78.56
594.006	81.56
594.215	78.56
594.424	86.56
594.634	96.56
594.843	101.56
595.053	80.56
595.262	85.56
595.472	108.56
595.681	93.56
595.89	79.56
596.1	84.56
596.309	81.56
596.518	92.56
596.727	82.56
596.937	78.56
597.146	102.56
597.355	77.56
597.564	90.56
597.774	65.56
597.983	83.56
598.192	69.56
598.401	90.56
598.61	70.56
598.819	76.56
599.028	89.56
599.237	74.56
599.446	76.56
599.655	94.56
599.864	84.56
600.073	80.56
600.282	90.56
600.491	78.56
600.7	81.56
600.909	82.56
601.118	94.56
601.327	78.56
601.536	81.56
601.745	83.56
601.953	91.56
602.162	83.56
602.371	88.56
602.58	75.56
602.789	83.56
602.997	84.56
603.206	96.56
603.415	83.56
603.623	93.56
603.832	87.56
604.041	74.56
604.249	82.56
604.458	82.56
604.666	85.56
604.875	83.56
605.084	80.56
605.292	81.56
605.501	72.56
605.709	83.56
605.918	85.56
606.126	74.56
606.334	77.56
606.543	85.56
606.751	90.56
606.96	92.56
607.168	84.56
607.376	77.56
607.585	88.56
607.793	88.56
608.001	87.56
608.21	77.56
608.418	103.56
608.626	84.56
608.834	82.56
609.043	87.56
609.251	94.56
609.459	83.56
609.667	78.56
609.875	82.56
610.083	87.56
610.291	82.56
610.499	80.56
610.707	92.56
610.916	78.56
611.124	94.56
611.332	90.56
611.54	83.56
611.748	93.56
611.955	88.56
612.163	93.56
612.371	87.56
612.579	78.56
612.787	77.56
612.995	87.56
613.203	91.56
613.411	78.56
613.618	103.56
613.826	87.56
614.034	78.56
614.242	88.56
614.449	77.56
614.657	80.56
614.865	82.56
615.072	82.56
615.28	70.56
615.488	100.56
615.695	81.56
615.903	85.56
616.111	80.56
616.318	96.56
616.526	86.56
616.733	84.56
616.941	87.56
617.148	94.56
617.356	88.56
617.563	80.56
617.771	98.56
617.978	85.56
618.185	87.56
618.393	80.56
618.6	85.56
618.807	82.56
619.015	85.56
619.222	93.56
619.429	83.56
619.637	90.56
619.844	87.56
620.051	98.56
620.258	84.56
620.466	92.56
620.673	85.56
620.88	77.56
621.087	95.56
621.294	88.56
621.501	100.56
621.708	78.56
621.915	72.56
622.122	84.56
622.329	78.56
622.536	87.56
622.743	90.56
622.95	67.56
623.157	69.56
623.364	87.56
623.571	84.56
623.778	88.56
623.985	80.56
624.192	88.56
624.399	82.56
624.606	87.56
624.812	80.56
625.019	79.56
625.226	90.56
625.433	98.56
625.639	103.56
625.846	84.56
626.053	90.56
626.259	79.56
626.466	87.56
626.673	86.56
626.879	96.56
627.086	78.56
627.293	79.56
627.499	72.56
627.706	96.56
627.912	83.56
628.119	87.56
628.325	88.56
628.532	93.56
628.738	87.56
628.945	82.56
629.151	99.56
629.357	68.56
629.564	67.56
629.77	66.56
629.976	76.56
630.183	80.56
630.389	84.56
630.595	87.56
630.802	95.56
631.008	87.56
631.214	94.56
631.42	94.56
631.627	85.56
631.833	95.56
632.039	68.56
632.245	66.56
632.451	84.56
632.657	82.56
632.863	93.56
633.069	79.56
633.275	92.56
633.481	83.56
633.688	86.56
633.893	73.56
634.099	72.56
634.305	80.56
634.511	85.56
634.717	78.56
634.923	76.56
635.129	85.56
635.335	77.56
635.541	87.56
635.747	84.56
635.952	95.56
636.158	79.56
636.364	82.56
636.57	82.56
636.775	77.56
636.981	97.56
637.187	94.56
637.392	82.56
637.598	85.56
637.804	86.56
638.009	73.56
638.215	61.56
638.421	76.56
638.626	87.56
638.832	92.56
639.037	83.56
639.243	85.56
639.448	82.56
639.654	79.56
639.859	85.56
640.065	87.56
640.27	100.56
640.475	77.56
640.681	78.56
640.886	86.56
641.091	81.56
641.297	78.56
641.502	86.56
641.707	75.56
641.913	84.56
642.118	102.56
642.323	85.56
642.528	92.56
642.733	72.56
642.939	100.56
643.144	93.56
643.349	90.56
643.554	83.56
643.759	94.56
643.964	93.56
644.169	81.56
644.374	86.56
644.579	76.56
644.784	80.56
644.989	92.56
645.194	83.56
645.399	91.56
645.604	66.56
645.809	85.56
646.014	83.56
646.219	75.56
646.423	79.56
646.628	79.56
646.833	90.56
647.038	78.56
647.243	76.56
647.447	86.56
647.652	86.56
647.857	86.56
648.062	75.56
648.266	88.56
648.471	66.56
648.676	89.56
648.88	75.56
649.085	71.56
649.289	82.56
649.494	86.56
649.698	71.56
649.903	76.56
650.107	84.56
650.312	93.56
650.516	95.56
650.721	84.56
650.925	74.56
651.13	77.56
651.334	70.56
651.539	76.56
651.743	92.56
651.947	77.56
652.152	79.56
652.356	80.56
652.56	81.56
652.764	80.56
652.969	82.56
653.173	97.56
653.377	102.56
653.581	87.56
653.785	80.56
653.99	77.56
654.194	80.56
654.398	90.56
654.602	74.56
654.806	78.56
655.01	94.56
655.214	83.56
655.418	80.56
655.622	80.56
655.826	79.56
656.03	93.56
656.234	98.56
656.438	86.56
656.642	83.56
656.846	77.56
657.049	77.56
657.253	78.56
657.457	76.56
657.661	93.56
657.865	77.56
658.068	95.56
658.272	84.56
658.476	98.56
658.68	86.56
658.883	103.56
659.087	74.56
659.291	100.56
659.494	88.56
659.698	84.56
659.901	85.56
660.105	79.56
660.309	84.56
660.512	79.56
660.716	92.56
660.919	88.56
661.123	85.56
661.326	80.56
661.53	86.56
661.733	92.56
661.936	70.56
662.14	82.56
662.343	81.56
662.546	79.56
662.75	91.56
662.953	76.56
663.156	80.56
663.36	96.56
663.563	81.56
663.766	84.56
663.969	95.56
664.173	93.56
664.376	75.56
664.579	91.56
664.782	80.56
664.985	90.56
665.188	89.56
665.391	82.56
665.594	95.56
665.797	68.56
666	87.56
666.203	83.56
666.406	70.56
666.609	83.56
666.812	91.56
667.015	82.56
667.218	92.56
667.421	94.56
667.624	82.56
667.827	71.56
668.03	78.56
668.232	71.56
668.435	79.56
668.638	90.56
668.841	87.56
669.043	87.56
669.246	93.56
669.449	70.56
669.651	78.56
669.854	86.56
670.057	86.56
670.259	77.56
670.462	88.56
670.665	83.56
670.867	79.56
671.07	85.56
671.272	108.56
671.475	84.56
671.677	85.56
671.88	76.56
672.082	84.56
672.284	70.56
672.487	70.56
672.689	73.56
672.892	80.56
