Data from Soil_75_3_HRD10591_00006.txt Node
Date: Thu Feb 19 11:18:37 EST 2026
User: Yrep
Spectrometer: HR+D1059
Trigger mode: 1
Integration Time (sec): 1.000000E-1
Scans to average: 1
Electric dark correction enabled: true
Nonlinearity correction enabled: false
Boxcar width: 0
XAxis mode: Wavelengths
Number of Pixels in Spectrum: 2048
>>>>>Begin Spectral Data<<<<<
223.165	-19.75
223.4	-19.75
223.635	-19.75
223.869	-17.75
224.104	-16.75
224.338	-21.75
224.573	-25.75
224.808	-13.75
225.042	-9.75
225.277	15.25
225.511	10.25
225.746	9.25
225.98	10.25
226.215	6.25
226.449	11.25
226.683	13.25
226.918	15.25
227.152	34.25
227.387	50.25
227.621	55.25
227.856	45.25
228.09	47.25
228.324	55.25
228.559	60.25
228.793	68.25
229.027	57.25
229.262	62.25
229.496	75.25
229.73	57.25
229.964	66.25
230.199	71.25
230.433	74.25
230.667	78.25
230.901	67.25
231.136	75.25
231.37	76.25
231.604	75.25
231.838	84.25
232.072	78.25
232.306	83.25
232.541	85.25
232.775	82.25
233.009	82.25
233.243	67.25
233.477	78.25
233.711	89.25
233.945	88.25
234.179	89.25
234.413	72.25
234.647	74.25
234.881	72.25
235.115	78.25
235.349	78.25
235.583	86.25
235.817	90.25
236.051	76.25
236.285	69.25
236.519	69.25
236.753	73.25
236.987	84.25
237.221	78.25
237.455	59.25
237.689	59.25
237.922	74.25
238.156	72.25
238.39	84.25
238.624	81.25
238.858	72.25
239.091	71.25
239.325	73.25
239.559	80.25
239.793	88.25
240.027	82.25
240.26	74.25
240.494	98.25
240.728	91.25
240.961	80.25
241.195	79.25
241.429	93.25
241.662	74.25
241.896	69.25
242.13	77.25
242.363	82.25
242.597	68.25
242.83	76.25
243.064	80.25
243.298	84.25
243.531	87.25
243.765	78.25
243.998	80.25
244.232	84.25
244.465	86.25
244.699	90.25
244.932	84.25
245.166	91.25
245.399	86.25
245.633	95.25
245.866	92.25
246.099	85.25
246.333	72.25
246.566	81.25
246.8	76.25
247.033	89.25
247.266	83.25
247.5	82.25
247.733	88.25
247.966	78.25
248.2	74.25
248.433	71.25
248.666	73.25
248.899	89.25
249.133	83.25
249.366	85.25
249.599	85.25
249.832	84.25
250.066	78.25
250.299	84.25
250.532	89.25
250.765	76.25
250.998	87.25
251.231	80.25
251.465	86.25
251.698	86.25
251.931	77.25
252.164	76.25
252.397	80.25
252.63	93.25
252.863	94.25
253.096	88.25
253.329	90.25
253.562	86.25
253.795	95.25
254.028	77.25
254.261	85.25
254.494	87.25
254.727	72.25
254.96	79.25
255.193	75.25
255.426	81.25
255.659	82.25
255.892	91.25
256.124	89.25
256.357	77.25
256.59	79.25
256.823	80.25
257.056	92.25
257.289	71.25
257.521	86.25
257.754	78.25
257.987	80.25
258.22	77.25
258.452	60.25
258.685	69.25
258.918	73.25
259.151	80.25
259.383	88.25
259.616	76.25
259.849	82.25
260.081	79.25
260.314	75.25
260.547	73.25
260.779	82.25
261.012	78.25
261.244	84.25
261.477	91.25
261.71	89.25
261.942	85.25
262.175	78.25
262.407	69.25
262.64	91.25
262.872	88.25
263.105	97.25
263.337	82.25
263.57	76.25
263.802	78.25
264.035	82.25
264.267	91.25
264.499	80.25
264.732	88.25
264.964	82.25
265.197	86.25
265.429	81.25
265.661	81.25
265.894	84.25
266.126	80.25
266.358	89.25
266.591	95.25
266.823	73.25
267.055	81.25
267.287	80.25
267.52	86.25
267.752	89.25
267.984	83.25
268.216	75.25
268.448	80.25
268.681	93.25
268.913	107.25
269.145	86.25
269.377	84.25
269.609	84.25
269.841	82.25
270.073	74.25
270.306	82.25
270.538	82.25
270.77	83.25
271.002	81.25
271.234	86.25
271.466	73.25
271.698	90.25
271.93	85.25
272.162	87.25
272.394	97.25
272.626	80.25
272.858	83.25
273.09	83.25
273.322	75.25
273.553	72.25
273.785	77.25
274.017	63.25
274.249	81.25
274.481	90.25
274.713	86.25
274.945	83.25
275.176	88.25
275.408	87.25
275.64	82.25
275.872	67.25
276.104	64.25
276.335	85.25
276.567	88.25
276.799	78.25
277.031	101.25
277.262	76.25
277.494	82.25
277.726	79.25
277.957	87.25
278.189	85.25
278.421	86.25
278.652	80.25
278.884	88.25
279.115	87.25
279.347	99.25
279.579	84.25
279.81	83.25
280.042	76.25
280.273	87.25
280.505	88.25
280.736	84.25
280.968	79.25
281.199	83.25
281.431	64.25
281.662	82.25
281.894	80.25
282.125	96.25
282.356	88.25
282.588	75.25
282.819	88.25
283.051	91.25
283.282	79.25
283.513	81.25
283.745	88.25
283.976	91.25
284.207	74.25
284.439	89.25
284.67	79.25
284.901	102.25
285.132	88.25
285.364	89.25
285.595	104.25
285.826	88.25
286.057	83.25
286.288	88.25
286.52	82.25
286.751	83.25
286.982	80.25
287.213	86.25
287.444	88.25
287.675	80.25
287.906	88.25
288.138	78.25
288.369	101.25
288.6	84.25
288.831	89.25
289.062	84.25
289.293	93.25
289.524	73.25
289.755	75.25
289.986	78.25
290.217	89.25
290.448	87.25
290.679	89.25
290.91	89.25
291.141	98.25
291.371	78.25
291.602	92.25
291.833	88.25
292.064	77.25
292.295	78.25
292.526	87.25
292.757	87.25
292.987	98.25
293.218	86.25
293.449	96.25
293.68	88.25
293.91	80.25
294.141	77.25
294.372	83.25
294.603	87.25
294.833	79.25
295.064	70.25
295.295	81.25
295.525	79.25
295.756	91.25
295.987	92.25
296.217	91.25
296.448	88.25
296.679	90.25
296.909	86.25
297.14	92.25
297.37	74.25
297.601	78.25
297.831	104.25
298.062	94.25
298.292	86.25
298.523	80.25
298.753	81.25
298.984	84.25
299.214	84.25
299.445	88.25
299.675	98.25
299.905	86.25
300.136	97.25
300.366	86.25
300.597	76.25
300.827	82.25
301.057	86.25
301.288	87.25
301.518	94.25
301.748	80.25
301.979	90.25
302.209	85.25
302.439	74.25
302.669	80.25
302.9	84.25
303.13	85.25
303.36	90.25
303.59	95.25
303.82	94.25
304.051	82.25
304.281	82.25
304.511	79.25
304.741	94.25
304.971	92.25
305.201	101.25
305.431	80.25
305.661	75.25
305.891	89.25
306.121	88.25
306.352	91.25
306.582	85.25
306.812	90.25
307.042	103.25
307.272	83.25
307.502	86.25
307.731	94.25
307.961	99.25
308.191	77.25
308.421	74.25
308.651	82.25
308.881	90.25
309.111	82.25
309.341	67.25
309.571	75.25
309.8	82.25
310.03	83.25
310.26	90.25
310.49	83.25
310.72	84.25
310.949	85.25
311.179	83.25
311.409	75.25
311.639	75.25
311.868	83.25
312.098	72.25
312.328	103.25
312.557	90.25
312.787	82.25
313.017	96.25
313.246	103.25
313.476	78.25
313.706	84.25
313.935	66.25
314.165	75.25
314.394	81.25
314.624	71.25
314.853	86.25
315.083	82.25
315.312	93.25
315.542	82.25
315.771	87.25
316.001	88.25
316.23	98.25
316.46	91.25
316.689	75.25
316.919	67.25
317.148	72.25
317.377	98.25
317.607	87.25
317.836	81.25
318.065	76.25
318.295	88.25
318.524	87.25
318.753	95.25
318.983	95.25
319.212	81.25
319.441	88.25
319.67	78.25
319.9	81.25
320.129	88.25
320.358	81.25
320.587	91.25
320.816	85.25
321.046	94.25
321.275	84.25
321.504	85.25
321.733	102.25
321.962	82.25
322.191	90.25
322.42	80.25
322.649	87.25
322.878	95.25
323.108	108.25
323.337	78.25
323.566	82.25
323.795	81.25
324.024	73.25
324.253	81.25
324.482	90.25
324.71	79.25
324.939	97.25
325.168	84.25
325.397	66.25
325.626	90.25
325.855	86.25
326.084	74.25
326.313	74.25
326.542	83.25
326.77	94.25
326.999	90.25
327.228	73.25
327.457	89.25
327.686	71.25
327.914	90.25
328.143	73.25
328.372	87.25
328.6	86.25
328.829	89.25
329.058	88.25
329.287	88.25
329.515	81.25
329.744	85.25
329.972	88.25
330.201	84.25
330.43	88.25
330.658	92.25
330.887	91.25
331.115	89.25
331.344	89.25
331.572	93.25
331.801	82.25
332.03	80.25
332.258	82.25
332.486	91.25
332.715	81.25
332.943	83.25
333.172	71.25
333.4	98.25
333.629	88.25
333.857	80.25
334.085	97.25
334.314	93.25
334.542	94.25
334.771	74.25
334.999	72.25
335.227	81.25
335.455	95.25
335.684	93.25
335.912	78.25
336.14	88.25
336.369	87.25
336.597	103.25
336.825	79.25
337.053	91.25
337.281	92.25
337.51	93.25
337.738	80.25
337.966	96.25
338.194	97.25
338.422	99.25
338.65	89.25
338.878	89.25
339.106	96.25
339.334	102.25
339.562	82.25
339.79	61.25
340.018	91.25
340.246	91.25
340.474	84.25
340.702	86.25
340.93	85.25
341.158	86.25
341.386	79.25
341.614	80.25
341.842	82.25
342.07	82.25
342.298	87.25
342.526	74.25
342.754	89.25
342.981	73.25
343.209	78.25
343.437	96.25
343.665	92.25
343.893	85.25
344.12	80.25
344.348	99.25
344.576	91.25
344.804	96.25
345.031	78.25
345.259	84.25
345.487	85.25
345.714	90.25
345.942	82.25
346.17	73.25
346.397	91.25
346.625	88.25
346.853	108.25
347.08	90.25
347.308	79.25
347.535	78.25
347.763	87.25
347.99	88.25
348.218	95.25
348.445	93.25
348.673	78.25
348.9	88.25
349.128	82.25
349.355	69.25
349.583	72.25
349.81	75.25
350.037	99.25
350.265	83.25
350.492	78.25
350.72	81.25
350.947	93.25
351.174	84.25
351.402	79.25
351.629	78.25
351.856	96.25
352.083	88.25
352.311	82.25
352.538	89.25
352.765	70.25
352.992	83.25
353.22	107.25
353.447	85.25
353.674	86.25
353.901	83.25
354.128	75.25
354.355	88.25
354.583	70.25
354.81	88.25
355.037	96.25
355.264	91.25
355.491	99.25
355.718	92.25
355.945	89.25
356.172	78.25
356.399	90.25
356.626	71.25
356.853	89.25
357.08	90.25
357.307	87.25
357.534	87.25
357.761	86.25
357.988	98.25
358.215	88.25
358.441	88.25
358.668	82.25
358.895	80.25
359.122	86.25
359.349	76.25
359.576	88.25
359.802	87.25
360.029	92.25
360.256	74.25
360.483	75.25
360.709	88.25
360.936	105.25
361.163	86.25
361.39	80.25
361.616	90.25
361.843	76.25
362.07	84.25
362.296	92.25
362.523	87.25
362.749	77.25
362.976	91.25
363.203	85.25
363.429	90.25
363.656	91.25
363.882	74.25
364.109	100.25
364.335	89.25
364.562	80.25
364.788	103.25
365.015	89.25
365.241	80.25
365.468	80.25
365.694	85.25
365.92	72.25
366.147	82.25
366.373	96.25
366.599	88.25
366.826	88.25
367.052	95.25
367.278	75.25
367.505	89.25
367.731	103.25
367.957	90.25
368.184	86.25
368.41	84.25
368.636	78.25
368.862	83.25
369.089	92.25
369.315	90.25
369.541	78.25
369.767	72.25
369.993	76.25
370.219	80.25
370.445	82.25
370.672	78.25
370.898	82.25
371.124	89.25
371.35	84.25
371.576	85.25
371.802	87.25
372.028	86.25
372.254	99.25
372.48	87.25
372.706	79.25
372.932	81.25
373.158	90.25
373.384	88.25
373.61	98.25
373.835	88.25
374.061	83.25
374.287	91.25
374.513	107.25
374.739	103.25
374.965	82.25
375.191	102.25
375.416	84.25
375.642	87.25
375.868	82.25
376.094	92.25
376.319	87.25
376.545	80.25
376.771	86.25
376.997	82.25
377.222	90.25
377.448	98.25
377.674	82.25
377.899	91.25
378.125	93.25
378.35	100.25
378.576	90.25
378.802	80.25
379.027	87.25
379.253	91.25
379.478	82.25
379.704	88.25
379.929	79.25
380.155	82.25
380.38	87.25
380.606	91.25
380.831	97.25
381.057	90.25
381.282	83.25
381.507	99.25
381.733	99.25
381.958	91.25
382.184	91.25
382.409	85.25
382.634	106.25
382.86	99.25
383.085	97.25
383.31	98.25
383.535	92.25
383.761	106.25
383.986	102.25
384.211	85.25
384.436	89.25
384.662	99.25
384.887	92.25
385.112	81.25
385.337	80.25
385.562	95.25
385.787	95.25
386.013	96.25
386.238	89.25
386.463	86.25
386.688	94.25
386.913	89.25
387.138	88.25
387.363	83.25
387.588	76.25
387.813	92.25
388.038	84.25
388.263	87.25
388.488	81.25
388.713	82.25
388.938	90.25
389.163	83.25
389.387	86.25
389.612	92.25
389.837	79.25
390.062	81.25
390.287	83.25
390.512	79.25
390.736	95.25
390.961	94.25
391.186	78.25
391.411	79.25
391.636	76.25
391.86	85.25
392.085	71.25
392.31	81.25
392.534	88.25
392.759	88.25
392.984	112.25
393.208	114.25
393.433	136.25
393.658	121.25
393.882	89.25
394.107	85.25
394.331	88.25
394.556	100.25
394.78	82.25
395.005	89.25
395.229	83.25
395.454	88.25
395.678	82.25
395.903	88.25
396.127	90.25
396.352	86.25
396.576	107.25
396.801	127.25
397.025	119.25
397.249	93.25
397.474	108.25
397.698	68.25
397.922	79.25
398.147	88.25
398.371	72.25
398.595	78.25
398.82	94.25
399.044	81.25
399.268	78.25
399.492	91.25
399.717	87.25
399.941	94.25
400.165	88.25
400.389	80.25
400.613	77.25
400.837	95.25
401.062	80.25
401.286	71.25
401.51	98.25
401.734	83.25
401.958	77.25
402.182	85.25
402.406	92.25
402.63	80.25
402.854	83.25
403.078	86.25
403.302	76.25
403.526	86.25
403.75	85.25
403.974	80.25
404.198	99.25
404.422	78.25
404.645	93.25
404.869	99.25
405.093	102.25
405.317	67.25
405.541	98.25
405.765	75.25
405.988	92.25
406.212	83.25
406.436	82.25
406.66	85.25
406.883	93.25
407.107	70.25
407.331	71.25
407.555	88.25
407.778	84.25
408.002	84.25
408.226	88.25
408.449	99.25
408.673	91.25
408.896	98.25
409.12	89.25
409.344	88.25
409.567	84.25
409.791	79.25
410.014	83.25
410.238	75.25
410.461	82.25
410.685	76.25
410.908	85.25
411.132	86.25
411.355	89.25
411.578	90.25
411.802	88.25
412.025	89.25
412.249	78.25
412.472	88.25
412.695	90.25
412.919	90.25
413.142	91.25
413.365	76.25
413.589	80.25
413.812	84.25
414.035	86.25
414.258	78.25
414.482	85.25
414.705	90.25
414.928	86.25
415.151	63.25
415.374	72.25
415.597	82.25
415.821	85.25
416.044	72.25
416.267	75.25
416.49	85.25
416.713	78.25
416.936	81.25
417.159	84.25
417.382	87.25
417.605	88.25
417.828	89.25
418.051	85.25
418.274	87.25
418.497	78.25
418.72	95.25
418.943	115.25
419.166	84.25
419.389	91.25
419.611	78.25
419.834	84.25
420.057	90.25
420.28	69.25
420.503	80.25
420.726	84.25
420.948	83.25
421.171	88.25
421.394	102.25
421.617	91.25
421.839	98.25
422.062	89.25
422.285	92.25
422.507	119.25
422.73	163.25
422.953	138.25
423.175	90.25
423.398	88.25
423.621	86.25
423.843	83.25
424.066	86.25
424.288	73.25
424.511	94.25
424.733	100.25
424.956	101.25
425.178	98.25
425.401	78.25
425.623	98.25
425.846	74.25
426.068	84.25
426.291	87.25
426.513	75.25
426.735	84.25
426.958	102.25
427.18	94.25
427.402	85.25
427.625	77.25
427.847	77.25
428.069	84.25
428.292	97.25
428.514	93.25
428.736	98.25
428.958	92.25
429.181	88.25
429.403	84.25
429.625	67.25
429.847	81.25
430.069	108.25
430.292	86.25
430.514	104.25
430.736	83.25
430.958	92.25
431.18	78.25
431.402	82.25
431.624	94.25
431.846	84.25
432.068	98.25
432.29	77.25
432.512	84.25
432.734	79.25
432.956	93.25
433.178	92.25
433.4	82.25
433.622	91.25
433.844	92.25
434.066	76.25
434.287	73.25
434.509	81.25
434.731	89.25
434.953	103.25
435.175	78.25
435.397	90.25
435.618	85.25
435.84	67.25
436.062	84.25
436.284	79.25
436.505	87.25
436.727	64.25
436.949	82.25
437.17	83.25
437.392	88.25
437.614	98.25
437.835	82.25
438.057	71.25
438.278	91.25
438.5	79.25
438.721	77.25
438.943	90.25
439.165	79.25
439.386	71.25
439.608	83.25
439.829	88.25
440.05	90.25
440.272	80.25
440.493	90.25
440.715	80.25
440.936	90.25
441.158	84.25
441.379	91.25
441.6	86.25
441.822	75.25
442.043	62.25
442.264	94.25
442.486	88.25
442.707	88.25
442.928	102.25
443.149	93.25
443.371	99.25
443.592	117.25
443.813	114.25
444.034	84.25
444.255	91.25
444.476	79.25
444.698	68.25
444.919	86.25
445.14	163.25
445.361	138.25
445.582	110.25
445.803	116.25
446.024	90.25
446.245	91.25
446.466	90.25
446.687	78.25
446.908	78.25
447.129	88.25
447.35	85.25
447.571	75.25
447.792	75.25
448.013	89.25
448.234	100.25
448.455	74.25
448.675	76.25
448.896	91.25
449.117	84.25
449.338	75.25
449.559	86.25
449.779	90.25
450	87.25
450.221	84.25
450.442	77.25
450.662	82.25
450.883	91.25
451.104	89.25
451.324	83.25
451.545	106.25
451.766	76.25
451.986	75.25
452.207	80.25
452.428	80.25
452.648	81.25
452.869	84.25
453.089	82.25
453.31	78.25
453.53	96.25
453.751	83.25
453.971	83.25
454.192	89.25
454.412	81.25
454.633	78.25
454.853	82.25
455.073	78.25
455.294	74.25
455.514	95.25
455.734	101.25
455.955	95.25
456.175	90.25
456.395	82.25
456.616	96.25
456.836	77.25
457.056	89.25
457.276	96.25
457.497	93.25
457.717	73.25
457.937	85.25
458.157	87.25
458.377	88.25
458.598	84.25
458.818	79.25
459.038	78.25
459.258	84.25
459.478	75.25
459.698	72.25
459.918	94.25
460.138	84.25
460.358	72.25
460.578	90.25
460.798	74.25
461.018	97.25
461.238	80.25
461.458	95.25
461.678	88.25
461.898	81.25
462.118	91.25
462.338	98.25
462.558	75.25
462.777	84.25
462.997	87.25
463.217	80.25
463.437	70.25
463.657	80.25
463.876	79.25
464.096	95.25
464.316	70.25
464.536	88.25
464.755	67.25
464.975	77.25
465.195	84.25
465.414	84.25
465.634	86.25
465.854	73.25
466.073	82.25
466.293	90.25
466.512	92.25
466.732	99.25
466.951	60.25
467.171	89.25
467.391	97.25
467.61	89.25
467.829	78.25
468.049	71.25
468.268	70.25
468.488	75.25
468.707	74.25
468.927	79.25
469.146	82.25
469.365	88.25
469.585	83.25
469.804	79.25
470.023	81.25
470.243	90.25
470.462	82.25
470.681	81.25
470.901	79.25
471.12	90.25
471.339	74.25
471.558	80.25
471.777	88.25
471.997	81.25
472.216	82.25
472.435	88.25
472.654	88.25
472.873	97.25
473.092	89.25
473.311	88.25
473.53	85.25
473.749	86.25
473.968	95.25
474.187	62.25
474.406	82.25
474.625	96.25
474.844	77.25
475.063	82.25
475.282	87.25
475.501	95.25
475.72	99.25
475.939	65.25
476.158	79.25
476.377	72.25
476.596	82.25
476.814	86.25
477.033	86.25
477.252	63.25
477.471	73.25
477.69	79.25
477.908	81.25
478.127	97.25
478.346	81.25
478.564	73.25
478.783	73.25
479.002	91.25
479.22	70.25
479.439	97.25
479.658	81.25
479.876	88.25
480.095	69.25
480.313	91.25
480.532	88.25
480.751	96.25
480.969	83.25
481.188	79.25
481.406	80.25
481.624	81.25
481.843	90.25
482.061	85.25
482.28	90.25
482.498	97.25
482.717	84.25
482.935	83.25
483.153	88.25
483.372	89.25
483.59	86.25
483.808	84.25
484.027	85.25
484.245	89.25
484.463	82.25
484.681	78.25
484.9	70.25
485.118	75.25
485.336	78.25
485.554	85.25
485.772	84.25
485.99	90.25
486.209	87.25
486.427	82.25
486.645	84.25
486.863	84.25
487.081	88.25
487.299	81.25
487.517	84.25
487.735	79.25
487.953	96.25
488.171	88.25
488.389	101.25
488.607	108.25
488.825	81.25
489.043	85.25
489.261	102.25
489.479	86.25
489.696	86.25
489.914	97.25
490.132	83.25
490.35	92.25
490.568	83.25
490.786	74.25
491.003	74.25
491.221	83.25
491.439	80.25
491.657	90.25
491.874	90.25
492.092	87.25
492.31	88.25
492.527	91.25
492.745	69.25
492.963	96.25
493.18	90.25
493.398	84.25
493.615	85.25
493.833	80.25
494.05	79.25
494.268	88.25
494.485	87.25
494.703	89.25
494.92	87.25
495.138	85.25
495.355	75.25
495.573	101.25
495.79	80.25
496.008	80.25
496.225	89.25
496.442	92.25
496.66	88.25
496.877	94.25
497.094	86.25
497.312	86.25
497.529	92.25
497.746	93.25
497.963	95.25
498.181	95.25
498.398	103.25
498.615	92.25
498.832	97.25
499.049	97.25
499.267	98.25
499.484	86.25
499.701	84.25
499.918	95.25
500.135	88.25
500.352	101.25
500.569	82.25
500.786	88.25
501.003	76.25
501.22	75.25
501.437	81.25
501.654	99.25
501.871	96.25
502.088	82.25
502.305	91.25
502.522	88.25
502.739	84.25
502.956	87.25
503.172	82.25
503.389	75.25
503.606	79.25
503.823	79.25
504.04	92.25
504.256	87.25
504.473	98.25
504.69	90.25
504.907	78.25
505.123	91.25
505.34	83.25
505.557	75.25
505.773	79.25
505.99	78.25
506.207	72.25
506.423	90.25
506.64	92.25
506.856	80.25
507.073	92.25
507.289	107.25
507.506	88.25
507.722	83.25
507.939	95.25
508.155	82.25
508.372	93.25
508.588	85.25
508.805	66.25
509.021	74.25
509.238	97.25
509.454	78.25
509.67	96.25
509.887	83.25
510.103	81.25
510.319	93.25
510.536	74.25
510.752	82.25
510.968	94.25
511.184	97.25
511.401	68.25
511.617	76.25
511.833	75.25
512.049	80.25
512.265	95.25
512.481	86.25
512.698	99.25
512.914	76.25
513.13	93.25
513.346	93.25
513.562	91.25
513.778	92.25
513.994	79.25
514.21	90.25
514.426	80.25
514.642	78.25
514.858	91.25
515.074	79.25
515.29	78.25
515.506	90.25
515.721	90.25
515.937	90.25
516.153	96.25
516.369	79.25
516.585	85.25
516.801	95.25
517.016	84.25
517.232	88.25
517.448	120.25
517.664	93.25
517.879	86.25
518.095	94.25
518.311	105.25
518.527	106.25
518.742	105.25
518.958	95.25
519.173	96.25
519.389	91.25
519.605	91.25
519.82	82.25
520.036	86.25
520.251	91.25
520.467	80.25
520.682	95.25
520.898	88.25
521.113	77.25
521.329	83.25
521.544	85.25
521.76	75.25
521.975	87.25
522.19	79.25
522.406	93.25
522.621	82.25
522.836	92.25
523.052	83.25
523.267	87.25
523.482	89.25
523.698	88.25
523.913	84.25
524.128	87.25
524.343	90.25
524.559	92.25
524.774	90.25
524.989	88.25
525.204	99.25
525.419	94.25
525.634	91.25
525.849	84.25
526.064	88.25
526.28	114.25
526.495	120.25
526.71	114.25
526.925	116.25
527.14	127.25
527.355	129.25
527.57	80.25
527.785	72.25
527.999	77.25
528.214	76.25
528.429	78.25
528.644	78.25
528.859	79.25
529.074	99.25
529.289	94.25
529.503	78.25
529.718	90.25
529.933	84.25
530.148	102.25
530.363	93.25
530.577	89.25
530.792	91.25
531.007	83.25
531.221	86.25
531.436	84.25
531.651	80.25
531.865	87.25
532.08	83.25
532.295	91.25
532.509	72.25
532.724	84.25
532.938	100.25
533.153	88.25
533.367	83.25
533.582	78.25
533.796	82.25
534.011	91.25
534.225	70.25
534.44	88.25
534.654	96.25
534.868	81.25
535.083	101.25
535.297	96.25
535.511	89.25
535.726	92.25
535.94	87.25
536.154	96.25
536.369	78.25
536.583	98.25
536.797	94.25
537.011	94.25
537.225	90.25
537.44	87.25
537.654	92.25
537.868	84.25
538.082	79.25
538.296	85.25
538.51	81.25
538.724	91.25
538.938	90.25
539.153	85.25
539.367	82.25
539.581	92.25
539.795	89.25
540.009	90.25
540.222	100.25
540.436	88.25
540.65	78.25
540.864	86.25
541.078	79.25
541.292	87.25
541.506	92.25
541.72	87.25
541.934	101.25
542.147	84.25
542.361	86.25
542.575	80.25
542.789	92.25
543.002	80.25
543.216	76.25
543.43	99.25
543.644	88.25
543.857	90.25
544.071	95.25
544.285	86.25
544.498	84.25
544.712	86.25
544.925	65.25
545.139	73.25
545.352	80.25
545.566	74.25
545.779	89.25
545.993	83.25
546.206	96.25
546.42	90.25
546.633	79.25
546.847	106.25
547.06	96.25
547.274	96.25
547.487	81.25
547.7	96.25
547.914	94.25
548.127	87.25
548.34	103.25
548.554	98.25
548.767	74.25
548.98	92.25
549.193	83.25
549.407	108.25
549.62	85.25
549.833	121.25
550.046	79.25
550.259	97.25
550.473	99.25
550.686	105.25
550.899	94.25
551.112	94.25
551.325	105.25
551.538	118.25
551.751	91.25
551.964	104.25
552.177	102.25
552.39	114.25
552.603	102.25
552.816	110.25
553.029	102.25
553.242	109.25
553.455	108.25
553.667	107.25
553.88	112.25
554.093	96.25
554.306	115.25
554.519	118.25
554.732	107.25
554.944	98.25
555.157	110.25
555.37	97.25
555.583	106.25
555.795	119.25
556.008	91.25
556.221	98.25
556.433	112.25
556.646	105.25
556.859	93.25
557.071	94.25
557.284	98.25
557.496	108.25
557.709	83.25
557.921	83.25
558.134	101.25
558.346	93.25
558.559	102.25
558.771	99.25
558.984	121.25
559.196	147.25
559.409	96.25
559.621	111.25
559.833	124.25
560.046	118.25
560.258	89.25
560.47	126.25
560.683	94.25
560.895	91.25
561.107	90.25
561.32	86.25
561.532	86.25
561.744	72.25
561.956	82.25
562.168	94.25
562.381	96.25
562.593	76.25
562.805	86.25
563.017	88.25
563.229	81.25
563.441	94.25
563.653	98.25
563.865	91.25
564.077	95.25
564.289	98.25
564.501	88.25
564.713	102.25
564.925	88.25
565.137	99.25
565.349	105.25
565.561	89.25
565.773	106.25
565.985	85.25
566.197	91.25
566.408	82.25
566.62	79.25
566.832	82.25
567.044	90.25
567.255	87.25
567.467	98.25
567.679	92.25
567.891	102.25
568.102	99.25
568.314	98.25
568.526	92.25
568.737	97.25
568.949	100.25
569.161	105.25
569.372	103.25
569.584	98.25
569.795	91.25
570.007	84.25
570.218	84.25
570.43	77.25
570.641	96.25
570.853	81.25
571.064	90.25
571.276	97.25
571.487	82.25
571.698	95.25
571.91	98.25
572.121	87.25
572.333	80.25
572.544	93.25
572.755	86.25
572.966	91.25
573.178	76.25
573.389	89.25
573.6	85.25
573.811	91.25
574.023	84.25
574.234	90.25
574.445	75.25
574.656	98.25
574.867	91.25
575.078	72.25
575.289	91.25
575.501	86.25
575.712	93.25
575.923	96.25
576.134	91.25
576.345	81.25
576.556	94.25
576.767	78.25
576.978	88.25
577.188	86.25
577.399	92.25
577.61	92.25
577.821	89.25
578.032	84.25
578.243	99.25
578.454	96.25
578.665	101.25
578.875	77.25
579.086	77.25
579.297	79.25
579.508	102.25
579.718	93.25
579.929	90.25
580.14	95.25
580.35	93.25
580.561	98.25
580.772	87.25
580.982	107.25
581.193	72.25
581.403	75.25
581.614	93.25
581.825	93.25
582.035	81.25
582.246	88.25
582.456	90.25
582.667	85.25
582.877	91.25
583.087	76.25
583.298	85.25
583.508	81.25
583.719	88.25
583.929	99.25
584.139	100.25
584.35	88.25
584.56	93.25
584.77	91.25
584.981	93.25
585.191	76.25
585.401	96.25
585.611	86.25
585.821	113.25
586.032	113.25
586.242	93.25
586.452	90.25
586.662	97.25
586.872	75.25
587.082	92.25
587.292	87.25
587.502	90.25
587.713	95.25
587.923	100.25
588.133	110.25
588.343	104.25
588.553	130.25
588.762	173.25
588.972	265.25
589.182	384.25
589.392	343.25
589.602	292.25
589.812	362.25
590.022	282.25
590.232	154.25
590.441	112.25
590.651	111.25
590.861	107.25
591.071	97.25
591.281	100.25
591.49	106.25
591.7	106.25
591.91	105.25
592.119	95.25
592.329	99.25
592.539	95.25
592.748	93.25
592.958	91.25
593.167	112.25
593.377	109.25
593.587	121.25
593.796	98.25
594.006	106.25
594.215	101.25
594.424	111.25
594.634	115.25
594.843	101.25
595.053	100.25
595.262	102.25
595.472	96.25
595.681	110.25
595.89	96.25
596.1	85.25
596.309	75.25
596.518	94.25
596.727	91.25
596.937	102.25
597.146	89.25
597.355	100.25
597.564	88.25
597.774	100.25
597.983	108.25
598.192	96.25
598.401	97.25
598.61	109.25
598.819	106.25
599.028	96.25
599.237	83.25
599.446	88.25
599.655	107.25
599.864	102.25
600.073	95.25
600.282	102.25
600.491	108.25
600.7	88.25
600.909	103.25
601.118	97.25
601.327	85.25
601.536	69.25
601.745	99.25
601.953	88.25
602.162	91.25
602.371	91.25
602.58	82.25
602.789	86.25
602.997	93.25
603.206	97.25
603.415	97.25
603.623	94.25
603.832	102.25
604.041	104.25
604.249	95.25
604.458	96.25
604.666	106.25
604.875	100.25
605.084	94.25
605.292	100.25
605.501	110.25
605.709	102.25
605.918	106.25
606.126	97.25
606.334	104.25
606.543	106.25
606.751	121.25
606.96	104.25
607.168	112.25
607.376	107.25
607.585	104.25
607.793	110.25
608.001	86.25
608.21	93.25
608.418	98.25
608.626	96.25
608.834	104.25
609.043	116.25
609.251	99.25
609.459	93.25
609.667	90.25
609.875	103.25
610.083	108.25
610.291	87.25
610.499	122.25
610.707	105.25
610.916	108.25
611.124	92.25
611.332	104.25
611.54	100.25
611.748	114.25
611.955	109.25
612.163	102.25
612.371	132.25
612.579	131.25
612.787	99.25
612.995	115.25
613.203	98.25
613.411	103.25
613.618	107.25
613.826	108.25
614.034	112.25
614.242	96.25
614.449	110.25
614.657	93.25
614.865	109.25
615.072	112.25
615.28	114.25
615.488	123.25
615.695	103.25
615.903	116.25
616.111	113.25
616.318	146.25
616.526	166.25
616.733	139.25
616.941	123.25
617.148	119.25
617.356	114.25
617.563	121.25
617.771	116.25
617.978	110.25
618.185	132.25
618.393	125.25
618.6	134.25
618.807	122.25
619.015	126.25
619.222	111.25
619.429	111.25
619.637	99.25
619.844	107.25
620.051	110.25
620.258	131.25
620.466	122.25
620.673	120.25
620.88	120.25
621.087	118.25
621.294	102.25
621.501	103.25
621.708	98.25
621.915	85.25
622.122	96.25
622.329	98.25
622.536	95.25
622.743	111.25
622.95	96.25
623.157	117.25
623.364	110.25
623.571	101.25
623.778	111.25
623.985	102.25
624.192	100.25
624.399	102.25
624.606	101.25
624.812	102.25
625.019	98.25
625.226	86.25
625.433	95.25
625.639	77.25
625.846	107.25
626.053	99.25
626.259	103.25
626.466	112.25
626.673	100.25
626.879	103.25
627.086	81.25
627.293	102.25
627.499	90.25
627.706	76.25
627.912	88.25
628.119	87.25
628.325	92.25
628.532	77.25
628.738	98.25
628.945	84.25
629.151	90.25
629.357	86.25
629.564	81.25
629.77	75.25
629.976	79.25
630.183	103.25
630.389	89.25
630.595	95.25
630.802	91.25
631.008	104.25
631.214	79.25
631.42	89.25
631.627	94.25
631.833	81.25
632.039	85.25
632.245	85.25
632.451	78.25
632.657	77.25
632.863	72.25
633.069	99.25
633.275	84.25
633.481	99.25
633.688	83.25
633.893	86.25
634.099	92.25
634.305	90.25
634.511	82.25
634.717	83.25
634.923	87.25
635.129	84.25
635.335	74.25
635.541	73.25
635.747	85.25
635.952	98.25
636.158	96.25
636.364	99.25
636.57	96.25
636.775	78.25
636.981	103.25
637.187	78.25
637.392	76.25
637.598	98.25
637.804	87.25
638.009	83.25
638.215	88.25
638.421	76.25
638.626	75.25
638.832	96.25
639.037	92.25
639.243	80.25
639.448	87.25
639.654	85.25
639.859	85.25
640.065	81.25
640.27	94.25
640.475	80.25
640.681	88.25
640.886	78.25
641.091	84.25
641.297	95.25
641.502	77.25
641.707	86.25
641.913	91.25
642.118	101.25
642.323	82.25
642.528	78.25
642.733	86.25
642.939	105.25
643.144	92.25
643.349	89.25
643.554	89.25
643.759	84.25
643.964	102.25
644.169	98.25
644.374	101.25
644.579	91.25
644.784	90.25
644.989	84.25
645.194	110.25
645.399	83.25
645.604	86.25
645.809	81.25
646.014	72.25
646.219	86.25
646.423	98.25
646.628	80.25
646.833	68.25
647.038	80.25
647.243	109.25
647.447	96.25
647.652	80.25
647.857	90.25
648.062	74.25
648.266	89.25
648.471	90.25
648.676	95.25
648.88	81.25
649.085	84.25
649.289	93.25
649.494	87.25
649.698	90.25
649.903	101.25
650.107	70.25
650.312	86.25
650.516	77.25
650.721	68.25
650.925	84.25
651.13	79.25
651.334	84.25
651.539	85.25
651.743	78.25
651.947	88.25
652.152	91.25
652.356	69.25
652.56	92.25
652.764	90.25
652.969	86.25
653.173	80.25
653.377	80.25
653.581	74.25
653.785	75.25
653.99	82.25
654.194	80.25
654.398	96.25
654.602	85.25
654.806	79.25
655.01	75.25
655.214	79.25
655.418	82.25
655.622	76.25
655.826	90.25
656.03	81.25
656.234	87.25
656.438	82.25
656.642	71.25
656.846	78.25
657.049	87.25
657.253	83.25
657.457	84.25
657.661	77.25
657.865	86.25
658.068	71.25
658.272	81.25
658.476	67.25
658.68	87.25
658.883	75.25
659.087	70.25
659.291	92.25
659.494	92.25
659.698	74.25
659.901	75.25
660.105	85.25
660.309	87.25
660.512	83.25
660.716	74.25
660.919	81.25
661.123	89.25
661.326	80.25
661.53	89.25
661.733	70.25
661.936	84.25
662.14	71.25
662.343	81.25
662.546	84.25
662.75	79.25
662.953	84.25
663.156	88.25
663.36	86.25
663.563	76.25
663.766	75.25
663.969	87.25
664.173	75.25
664.376	76.25
664.579	71.25
664.782	86.25
664.985	98.25
665.188	86.25
665.391	79.25
665.594	90.25
665.797	89.25
666	80.25
666.203	96.25
666.406	84.25
666.609	83.25
666.812	91.25
667.015	86.25
667.218	84.25
667.421	92.25
667.624	89.25
667.827	78.25
668.03	82.25
668.232	84.25
668.435	81.25
668.638	92.25
668.841	74.25
669.043	82.25
669.246	95.25
669.449	91.25
669.651	76.25
669.854	87.25
670.057	91.25
670.259	84.25
670.462	72.25
670.665	79.25
670.867	79.25
671.07	72.25
671.272	98.25
671.475	98.25
671.677	76.25
671.88	105.25
672.082	90.25
672.284	78.25
672.487	80.25
672.689	86.25
672.892	78.25
