Data from Soil_75_3_HRD10591_00015.txt Node
Date: Thu Feb 19 11:18:40 EST 2026
User: Yrep
Spectrometer: HR+D1059
Trigger mode: 1
Integration Time (sec): 1.000000E-1
Scans to average: 1
Electric dark correction enabled: true
Nonlinearity correction enabled: false
Boxcar width: 0
XAxis mode: Wavelengths
Number of Pixels in Spectrum: 2048
>>>>>Begin Spectral Data<<<<<
223.165	-12.62
223.4	-12.62
223.635	-12.62
223.869	-13.62
224.104	-24.62
224.338	2.38
224.573	-3.62
224.808	-10.62
225.042	-13.62
225.277	5.38
225.511	-4.62
225.746	2.38
225.98	8.38
226.215	21.38
226.449	0.38
226.683	22.38
226.918	5.38
227.152	15.38
227.387	29.38
227.621	36.38
227.856	40.38
228.09	55.38
228.324	50.38
228.559	62.38
228.793	45.38
229.027	68.38
229.262	65.38
229.496	69.38
229.73	64.38
229.964	70.38
230.199	79.38
230.433	83.38
230.667	69.38
230.901	75.38
231.136	78.38
231.37	70.38
231.604	82.38
231.838	69.38
232.072	66.38
232.306	73.38
232.541	80.38
232.775	76.38
233.009	78.38
233.243	79.38
233.477	77.38
233.711	85.38
233.945	77.38
234.179	79.38
234.413	81.38
234.647	77.38
234.881	73.38
235.115	69.38
235.349	67.38
235.583	71.38
235.817	91.38
236.051	77.38
236.285	70.38
236.519	71.38
236.753	74.38
236.987	67.38
237.221	66.38
237.455	77.38
237.689	79.38
237.922	62.38
238.156	70.38
238.39	64.38
238.624	70.38
238.858	80.38
239.091	80.38
239.325	68.38
239.559	61.38
239.793	66.38
240.027	74.38
240.26	68.38
240.494	81.38
240.728	70.38
240.961	71.38
241.195	77.38
241.429	72.38
241.662	75.38
241.896	72.38
242.13	54.38
242.363	73.38
242.597	73.38
242.83	74.38
243.064	62.38
243.298	83.38
243.531	79.38
243.765	69.38
243.998	78.38
244.232	69.38
244.465	66.38
244.699	83.38
244.932	82.38
245.166	68.38
245.399	74.38
245.633	75.38
245.866	80.38
246.099	58.38
246.333	66.38
246.566	63.38
246.8	77.38
247.033	66.38
247.266	81.38
247.5	68.38
247.733	69.38
247.966	72.38
248.2	80.38
248.433	73.38
248.666	83.38
248.899	75.38
249.133	82.38
249.366	99.38
249.599	97.38
249.832	80.38
250.066	84.38
250.299	79.38
250.532	76.38
250.765	68.38
250.998	68.38
251.231	89.38
251.465	81.38
251.698	64.38
251.931	90.38
252.164	77.38
252.397	79.38
252.63	92.38
252.863	71.38
253.096	80.38
253.329	75.38
253.562	95.38
253.795	89.38
254.028	77.38
254.261	81.38
254.494	73.38
254.727	90.38
254.96	75.38
255.193	82.38
255.426	74.38
255.659	82.38
255.892	83.38
256.124	73.38
256.357	95.38
256.59	84.38
256.823	70.38
257.056	75.38
257.289	77.38
257.521	78.38
257.754	69.38
257.987	73.38
258.22	73.38
258.452	68.38
258.685	76.38
258.918	82.38
259.151	67.38
259.383	81.38
259.616	71.38
259.849	81.38
260.081	78.38
260.314	79.38
260.547	81.38
260.779	92.38
261.012	87.38
261.244	88.38
261.477	81.38
261.71	75.38
261.942	67.38
262.175	75.38
262.407	69.38
262.64	77.38
262.872	90.38
263.105	77.38
263.337	77.38
263.57	90.38
263.802	69.38
264.035	66.38
264.267	74.38
264.499	70.38
264.732	63.38
264.964	85.38
265.197	85.38
265.429	77.38
265.661	72.38
265.894	75.38
266.126	91.38
266.358	81.38
266.591	81.38
266.823	85.38
267.055	71.38
267.287	79.38
267.52	72.38
267.752	83.38
267.984	78.38
268.216	75.38
268.448	77.38
268.681	78.38
268.913	87.38
269.145	86.38
269.377	69.38
269.609	77.38
269.841	80.38
270.073	67.38
270.306	75.38
270.538	85.38
270.77	77.38
271.002	71.38
271.234	80.38
271.466	71.38
271.698	79.38
271.93	78.38
272.162	68.38
272.394	91.38
272.626	93.38
272.858	70.38
273.09	80.38
273.322	89.38
273.553	77.38
273.785	87.38
274.017	79.38
274.249	78.38
274.481	81.38
274.713	72.38
274.945	81.38
275.176	69.38
275.408	76.38
275.64	89.38
275.872	91.38
276.104	90.38
276.335	72.38
276.567	92.38
276.799	68.38
277.031	79.38
277.262	82.38
277.494	79.38
277.726	98.38
277.957	81.38
278.189	78.38
278.421	76.38
278.652	83.38
278.884	76.38
279.115	86.38
279.347	79.38
279.579	73.38
279.81	75.38
280.042	80.38
280.273	67.38
280.505	75.38
280.736	77.38
280.968	81.38
281.199	85.38
281.431	75.38
281.662	70.38
281.894	79.38
282.125	71.38
282.356	74.38
282.588	92.38
282.819	88.38
283.051	90.38
283.282	71.38
283.513	85.38
283.745	78.38
283.976	94.38
284.207	83.38
284.439	75.38
284.67	82.38
284.901	88.38
285.132	78.38
285.364	93.38
285.595	73.38
285.826	82.38
286.057	85.38
286.288	80.38
286.52	81.38
286.751	88.38
286.982	74.38
287.213	87.38
287.444	64.38
287.675	78.38
287.906	84.38
288.138	64.38
288.369	67.38
288.6	88.38
288.831	71.38
289.062	85.38
289.293	80.38
289.524	77.38
289.755	81.38
289.986	79.38
290.217	73.38
290.448	85.38
290.679	85.38
290.91	88.38
291.141	93.38
291.371	79.38
291.602	76.38
291.833	75.38
292.064	101.38
292.295	87.38
292.526	87.38
292.757	74.38
292.987	77.38
293.218	75.38
293.449	72.38
293.68	79.38
293.91	83.38
294.141	84.38
294.372	81.38
294.603	74.38
294.833	83.38
295.064	93.38
295.295	91.38
295.525	87.38
295.756	75.38
295.987	86.38
296.217	88.38
296.448	85.38
296.679	85.38
296.909	82.38
297.14	97.38
297.37	84.38
297.601	69.38
297.831	80.38
298.062	86.38
298.292	71.38
298.523	80.38
298.753	82.38
298.984	78.38
299.214	83.38
299.445	84.38
299.675	81.38
299.905	72.38
300.136	65.38
300.366	77.38
300.597	86.38
300.827	91.38
301.057	97.38
301.288	83.38
301.518	83.38
301.748	84.38
301.979	86.38
302.209	77.38
302.439	93.38
302.669	93.38
302.9	83.38
303.13	85.38
303.36	68.38
303.59	89.38
303.82	81.38
304.051	85.38
304.281	87.38
304.511	99.38
304.741	81.38
304.971	93.38
305.201	93.38
305.431	78.38
305.661	79.38
305.891	86.38
306.121	88.38
306.352	79.38
306.582	78.38
306.812	73.38
307.042	83.38
307.272	95.38
307.502	89.38
307.731	75.38
307.961	92.38
308.191	81.38
308.421	87.38
308.651	74.38
308.881	83.38
309.111	86.38
309.341	75.38
309.571	75.38
309.8	75.38
310.03	70.38
310.26	81.38
310.49	90.38
310.72	75.38
310.949	66.38
311.179	86.38
311.409	93.38
311.639	75.38
311.868	67.38
312.098	97.38
312.328	85.38
312.557	78.38
312.787	85.38
313.017	84.38
313.246	71.38
313.476	71.38
313.706	93.38
313.935	76.38
314.165	80.38
314.394	86.38
314.624	69.38
314.853	86.38
315.083	93.38
315.312	84.38
315.542	79.38
315.771	77.38
316.001	72.38
316.23	85.38
316.46	79.38
316.689	78.38
316.919	86.38
317.148	86.38
317.377	77.38
317.607	67.38
317.836	87.38
318.065	79.38
318.295	77.38
318.524	82.38
318.753	79.38
318.983	78.38
319.212	93.38
319.441	73.38
319.67	79.38
319.9	87.38
320.129	73.38
320.358	83.38
320.587	93.38
320.816	75.38
321.046	94.38
321.275	79.38
321.504	73.38
321.733	89.38
321.962	76.38
322.191	80.38
322.42	63.38
322.649	100.38
322.878	68.38
323.108	84.38
323.337	82.38
323.566	83.38
323.795	73.38
324.024	88.38
324.253	86.38
324.482	79.38
324.71	79.38
324.939	93.38
325.168	78.38
325.397	87.38
325.626	81.38
325.855	78.38
326.084	69.38
326.313	80.38
326.542	83.38
326.77	82.38
326.999	85.38
327.228	78.38
327.457	93.38
327.686	85.38
327.914	75.38
328.143	81.38
328.372	70.38
328.6	80.38
328.829	81.38
329.058	68.38
329.287	80.38
329.515	93.38
329.744	82.38
329.972	92.38
330.201	81.38
330.43	82.38
330.658	92.38
330.887	98.38
331.115	82.38
331.344	77.38
331.572	87.38
331.801	100.38
332.03	75.38
332.258	84.38
332.486	73.38
332.715	94.38
332.943	86.38
333.172	77.38
333.4	73.38
333.629	77.38
333.857	73.38
334.085	101.38
334.314	79.38
334.542	77.38
334.771	75.38
334.999	87.38
335.227	86.38
335.455	83.38
335.684	92.38
335.912	87.38
336.14	81.38
336.369	84.38
336.597	84.38
336.825	71.38
337.053	71.38
337.281	74.38
337.51	93.38
337.738	92.38
337.966	79.38
338.194	89.38
338.422	80.38
338.65	69.38
338.878	85.38
339.106	82.38
339.334	90.38
339.562	101.38
339.79	85.38
340.018	83.38
340.246	89.38
340.474	87.38
340.702	82.38
340.93	76.38
341.158	75.38
341.386	75.38
341.614	79.38
341.842	87.38
342.07	74.38
342.298	82.38
342.526	83.38
342.754	75.38
342.981	85.38
343.209	58.38
343.437	101.38
343.665	99.38
343.893	91.38
344.12	91.38
344.348	89.38
344.576	72.38
344.804	80.38
345.031	85.38
345.259	90.38
345.487	77.38
345.714	81.38
345.942	81.38
346.17	91.38
346.397	78.38
346.625	91.38
346.853	81.38
347.08	78.38
347.308	82.38
347.535	92.38
347.763	82.38
347.99	92.38
348.218	86.38
348.445	84.38
348.673	85.38
348.9	78.38
349.128	88.38
349.355	85.38
349.583	79.38
349.81	82.38
350.037	69.38
350.265	80.38
350.492	71.38
350.72	63.38
350.947	83.38
351.174	84.38
351.402	77.38
351.629	74.38
351.856	86.38
352.083	85.38
352.311	84.38
352.538	78.38
352.765	81.38
352.992	93.38
353.22	72.38
353.447	75.38
353.674	89.38
353.901	79.38
354.128	95.38
354.355	78.38
354.583	77.38
354.81	88.38
355.037	75.38
355.264	80.38
355.491	74.38
355.718	71.38
355.945	73.38
356.172	92.38
356.399	96.38
356.626	84.38
356.853	92.38
357.08	84.38
357.307	86.38
357.534	73.38
357.761	69.38
357.988	85.38
358.215	87.38
358.441	91.38
358.668	103.38
358.895	89.38
359.122	81.38
359.349	73.38
359.576	95.38
359.802	78.38
360.029	72.38
360.256	69.38
360.483	81.38
360.709	89.38
360.936	87.38
361.163	82.38
361.39	68.38
361.616	76.38
361.843	78.38
362.07	86.38
362.296	81.38
362.523	87.38
362.749	88.38
362.976	73.38
363.203	92.38
363.429	81.38
363.656	87.38
363.882	95.38
364.109	83.38
364.335	84.38
364.562	87.38
364.788	81.38
365.015	78.38
365.241	87.38
365.468	102.38
365.694	89.38
365.92	84.38
366.147	85.38
366.373	92.38
366.599	81.38
366.826	86.38
367.052	91.38
367.278	71.38
367.505	76.38
367.731	79.38
367.957	70.38
368.184	89.38
368.41	83.38
368.636	85.38
368.862	76.38
369.089	69.38
369.315	93.38
369.541	91.38
369.767	92.38
369.993	70.38
370.219	82.38
370.445	79.38
370.672	84.38
370.898	76.38
371.124	86.38
371.35	93.38
371.576	89.38
371.802	79.38
372.028	74.38
372.254	83.38
372.48	88.38
372.706	81.38
372.932	79.38
373.158	79.38
373.384	87.38
373.61	85.38
373.835	90.38
374.061	72.38
374.287	71.38
374.513	77.38
374.739	77.38
374.965	83.38
375.191	89.38
375.416	82.38
375.642	79.38
375.868	73.38
376.094	68.38
376.319	78.38
376.545	84.38
376.771	75.38
376.997	56.38
377.222	74.38
377.448	88.38
377.674	85.38
377.899	69.38
378.125	80.38
378.35	82.38
378.576	81.38
378.802	98.38
379.027	84.38
379.253	73.38
379.478	78.38
379.704	82.38
379.929	66.38
380.155	84.38
380.38	83.38
380.606	80.38
380.831	81.38
381.057	82.38
381.282	86.38
381.507	85.38
381.733	69.38
381.958	79.38
382.184	84.38
382.409	93.38
382.634	72.38
382.86	79.38
383.085	84.38
383.31	84.38
383.535	77.38
383.761	71.38
383.986	81.38
384.211	92.38
384.436	73.38
384.662	74.38
384.887	79.38
385.112	89.38
385.337	74.38
385.562	77.38
385.787	89.38
386.013	69.38
386.238	78.38
386.463	85.38
386.688	88.38
386.913	87.38
387.138	69.38
387.363	57.38
387.588	83.38
387.813	76.38
388.038	78.38
388.263	101.38
388.488	81.38
388.713	77.38
388.938	82.38
389.163	67.38
389.387	69.38
389.612	70.38
389.837	86.38
390.062	84.38
390.287	76.38
390.512	73.38
390.736	71.38
390.961	91.38
391.186	77.38
391.411	68.38
391.636	74.38
391.86	69.38
392.085	79.38
392.31	77.38
392.534	76.38
392.759	83.38
392.984	83.38
393.208	93.38
393.433	94.38
393.658	84.38
393.882	81.38
394.107	72.38
394.331	84.38
394.556	82.38
394.78	78.38
395.005	73.38
395.229	69.38
395.454	76.38
395.678	88.38
395.903	91.38
396.127	74.38
396.352	73.38
396.576	87.38
396.801	93.38
397.025	84.38
397.249	78.38
397.474	78.38
397.698	71.38
397.922	97.38
398.147	75.38
398.371	86.38
398.595	101.38
398.82	69.38
399.044	77.38
399.268	77.38
399.492	80.38
399.717	85.38
399.941	80.38
400.165	80.38
400.389	85.38
400.613	75.38
400.837	75.38
401.062	81.38
401.286	80.38
401.51	75.38
401.734	75.38
401.958	76.38
402.182	75.38
402.406	79.38
402.63	83.38
402.854	80.38
403.078	79.38
403.302	91.38
403.526	89.38
403.75	86.38
403.974	77.38
404.198	82.38
404.422	77.38
404.645	77.38
404.869	74.38
405.093	81.38
405.317	93.38
405.541	87.38
405.765	80.38
405.988	94.38
406.212	83.38
406.436	64.38
406.66	83.38
406.883	73.38
407.107	72.38
407.331	65.38
407.555	78.38
407.778	68.38
408.002	79.38
408.226	78.38
408.449	80.38
408.673	71.38
408.896	75.38
409.12	92.38
409.344	81.38
409.567	83.38
409.791	77.38
410.014	77.38
410.238	84.38
410.461	90.38
410.685	75.38
410.908	80.38
411.132	82.38
411.355	58.38
411.578	86.38
411.802	83.38
412.025	74.38
412.249	69.38
412.472	77.38
412.695	74.38
412.919	87.38
413.142	86.38
413.365	96.38
413.589	81.38
413.812	77.38
414.035	73.38
414.258	80.38
414.482	75.38
414.705	73.38
414.928	74.38
415.151	65.38
415.374	86.38
415.597	70.38
415.821	82.38
416.044	75.38
416.267	93.38
416.49	69.38
416.713	80.38
416.936	81.38
417.159	73.38
417.382	77.38
417.605	87.38
417.828	85.38
418.051	74.38
418.274	72.38
418.497	97.38
418.72	80.38
418.943	71.38
419.166	80.38
419.389	77.38
419.611	78.38
419.834	75.38
420.057	67.38
420.28	79.38
420.503	72.38
420.726	83.38
420.948	77.38
421.171	72.38
421.394	86.38
421.617	72.38
421.839	79.38
422.062	83.38
422.285	93.38
422.507	75.38
422.73	78.38
422.953	77.38
423.175	79.38
423.398	74.38
423.621	85.38
423.843	72.38
424.066	73.38
424.288	81.38
424.511	75.38
424.733	91.38
424.956	81.38
425.178	72.38
425.401	75.38
425.623	82.38
425.846	76.38
426.068	85.38
426.291	85.38
426.513	77.38
426.735	67.38
426.958	77.38
427.18	62.38
427.402	77.38
427.625	67.38
427.847	82.38
428.069	86.38
428.292	75.38
428.514	74.38
428.736	77.38
428.958	82.38
429.181	83.38
429.403	81.38
429.625	91.38
429.847	81.38
430.069	75.38
430.292	93.38
430.514	92.38
430.736	77.38
430.958	78.38
431.18	81.38
431.402	83.38
431.624	77.38
431.846	78.38
432.068	71.38
432.29	81.38
432.512	90.38
432.734	72.38
432.956	84.38
433.178	72.38
433.4	84.38
433.622	76.38
433.844	84.38
434.066	66.38
434.287	76.38
434.509	77.38
434.731	84.38
434.953	73.38
435.175	78.38
435.397	79.38
435.618	77.38
435.84	77.38
436.062	80.38
436.284	54.38
436.505	84.38
436.727	79.38
436.949	76.38
437.17	83.38
437.392	73.38
437.614	86.38
437.835	85.38
438.057	89.38
438.278	78.38
438.5	91.38
438.721	74.38
438.943	80.38
439.165	81.38
439.386	65.38
439.608	73.38
439.829	81.38
440.05	75.38
440.272	78.38
440.493	74.38
440.715	79.38
440.936	62.38
441.158	71.38
441.379	73.38
441.6	77.38
441.822	85.38
442.043	76.38
442.264	96.38
442.486	84.38
442.707	65.38
442.928	77.38
443.149	75.38
443.371	84.38
443.592	88.38
443.813	84.38
444.034	76.38
444.255	70.38
444.476	69.38
444.698	78.38
444.919	84.38
445.14	173.38
445.361	130.38
445.582	80.38
445.803	83.38
446.024	75.38
446.245	97.38
446.466	83.38
446.687	75.38
446.908	81.38
447.129	70.38
447.35	81.38
447.571	79.38
447.792	89.38
448.013	79.38
448.234	82.38
448.455	68.38
448.675	91.38
448.896	93.38
449.117	69.38
449.338	71.38
449.559	81.38
449.779	71.38
450	82.38
450.221	77.38
450.442	93.38
450.662	70.38
450.883	66.38
451.104	81.38
451.324	76.38
451.545	71.38
451.766	86.38
451.986	77.38
452.207	79.38
452.428	87.38
452.648	75.38
452.869	75.38
453.089	65.38
453.31	72.38
453.53	84.38
453.751	86.38
453.971	85.38
454.192	70.38
454.412	74.38
454.633	83.38
454.853	70.38
455.073	69.38
455.294	62.38
455.514	79.38
455.734	72.38
455.955	69.38
456.175	86.38
456.395	77.38
456.616	81.38
456.836	77.38
457.056	80.38
457.276	75.38
457.497	84.38
457.717	74.38
457.937	80.38
458.157	88.38
458.377	64.38
458.598	79.38
458.818	72.38
459.038	78.38
459.258	70.38
459.478	79.38
459.698	73.38
459.918	77.38
460.138	88.38
460.358	79.38
460.578	73.38
460.798	86.38
461.018	88.38
461.238	76.38
461.458	86.38
461.678	75.38
461.898	81.38
462.118	78.38
462.338	85.38
462.558	91.38
462.777	77.38
462.997	109.38
463.217	82.38
463.437	76.38
463.657	83.38
463.876	58.38
464.096	77.38
464.316	82.38
464.536	85.38
464.755	82.38
464.975	79.38
465.195	77.38
465.414	83.38
465.634	71.38
465.854	89.38
466.073	77.38
466.293	88.38
466.512	71.38
466.732	73.38
466.951	87.38
467.171	80.38
467.391	71.38
467.61	84.38
467.829	90.38
468.049	67.38
468.268	83.38
468.488	77.38
468.707	72.38
468.927	73.38
469.146	72.38
469.365	77.38
469.585	86.38
469.804	80.38
470.023	81.38
470.243	78.38
470.462	79.38
470.681	77.38
470.901	86.38
471.12	79.38
471.339	84.38
471.558	80.38
471.777	73.38
471.997	61.38
472.216	80.38
472.435	77.38
472.654	77.38
472.873	86.38
473.092	92.38
473.311	81.38
473.53	87.38
473.749	85.38
473.968	91.38
474.187	87.38
474.406	75.38
474.625	74.38
474.844	94.38
475.063	68.38
475.282	65.38
475.501	73.38
475.72	84.38
475.939	76.38
476.158	86.38
476.377	94.38
476.596	82.38
476.814	70.38
477.033	80.38
477.252	89.38
477.471	81.38
477.69	77.38
477.908	64.38
478.127	86.38
478.346	63.38
478.564	75.38
478.783	85.38
479.002	82.38
479.22	69.38
479.439	76.38
479.658	77.38
479.876	88.38
480.095	80.38
480.313	71.38
480.532	85.38
480.751	82.38
480.969	84.38
481.188	81.38
481.406	86.38
481.624	86.38
481.843	76.38
482.061	73.38
482.28	86.38
482.498	81.38
482.717	75.38
482.935	81.38
483.153	67.38
483.372	77.38
483.59	72.38
483.808	75.38
484.027	69.38
484.245	84.38
484.463	96.38
484.681	73.38
484.9	77.38
485.118	64.38
485.336	77.38
485.554	69.38
485.772	87.38
485.99	82.38
486.209	80.38
486.427	74.38
486.645	81.38
486.863	79.38
487.081	79.38
487.299	84.38
487.517	67.38
487.735	63.38
487.953	75.38
488.171	69.38
488.389	82.38
488.607	63.38
488.825	81.38
489.043	89.38
489.261	92.38
489.479	68.38
489.696	94.38
489.914	78.38
490.132	79.38
490.35	87.38
490.568	82.38
490.786	70.38
491.003	82.38
491.221	71.38
491.439	84.38
491.657	96.38
491.874	77.38
492.092	79.38
492.31	74.38
492.527	78.38
492.745	90.38
492.963	69.38
493.18	84.38
493.398	73.38
493.615	85.38
493.833	78.38
494.05	81.38
494.268	87.38
494.485	75.38
494.703	81.38
494.92	86.38
495.138	69.38
495.355	73.38
495.573	81.38
495.79	81.38
496.008	66.38
496.225	85.38
496.442	67.38
496.66	72.38
496.877	74.38
497.094	91.38
497.312	71.38
497.529	96.38
497.746	70.38
497.963	81.38
498.181	78.38
498.398	71.38
498.615	82.38
498.832	77.38
499.049	89.38
499.267	83.38
499.484	81.38
499.701	75.38
499.918	86.38
500.135	88.38
500.352	85.38
500.569	88.38
500.786	75.38
501.003	83.38
501.22	83.38
501.437	82.38
501.654	84.38
501.871	98.38
502.088	78.38
502.305	74.38
502.522	85.38
502.739	75.38
502.956	91.38
503.172	68.38
503.389	80.38
503.606	70.38
503.823	79.38
504.04	78.38
504.256	75.38
504.473	84.38
504.69	69.38
504.907	94.38
505.123	83.38
505.34	93.38
505.557	87.38
505.773	87.38
505.99	96.38
506.207	83.38
506.423	83.38
506.64	84.38
506.856	82.38
507.073	81.38
507.289	77.38
507.506	80.38
507.722	94.38
507.939	85.38
508.155	68.38
508.372	80.38
508.588	89.38
508.805	79.38
509.021	69.38
509.238	94.38
509.454	75.38
509.67	82.38
509.887	82.38
510.103	77.38
510.319	75.38
510.536	76.38
510.752	75.38
510.968	84.38
511.184	78.38
511.401	83.38
511.617	97.38
511.833	91.38
512.049	79.38
512.265	63.38
512.481	90.38
512.698	86.38
512.914	73.38
513.13	77.38
513.346	86.38
513.562	91.38
513.778	83.38
513.994	83.38
514.21	70.38
514.426	87.38
514.642	74.38
514.858	86.38
515.074	80.38
515.29	80.38
515.506	92.38
515.721	82.38
515.937	87.38
516.153	86.38
516.369	70.38
516.585	93.38
516.801	67.38
517.016	81.38
517.232	83.38
517.448	95.38
517.664	77.38
517.879	73.38
518.095	76.38
518.311	79.38
518.527	71.38
518.742	79.38
518.958	66.38
519.173	93.38
519.389	74.38
519.605	81.38
519.82	82.38
520.036	88.38
520.251	72.38
520.467	84.38
520.682	74.38
520.898	68.38
521.113	75.38
521.329	81.38
521.544	82.38
521.76	80.38
521.975	80.38
522.19	92.38
522.406	89.38
522.621	90.38
522.836	82.38
523.052	84.38
523.267	74.38
523.482	85.38
523.698	73.38
523.913	89.38
524.128	73.38
524.343	82.38
524.559	73.38
524.774	79.38
524.989	93.38
525.204	101.38
525.419	78.38
525.634	83.38
525.849	89.38
526.064	93.38
526.28	97.38
526.495	87.38
526.71	69.38
526.925	73.38
527.14	79.38
527.355	90.38
527.57	85.38
527.785	65.38
527.999	66.38
528.214	78.38
528.429	79.38
528.644	68.38
528.859	81.38
529.074	80.38
529.289	71.38
529.503	79.38
529.718	78.38
529.933	88.38
530.148	81.38
530.363	82.38
530.577	99.38
530.792	97.38
531.007	79.38
531.221	90.38
531.436	85.38
531.651	81.38
531.865	81.38
532.08	80.38
532.295	82.38
532.509	82.38
532.724	66.38
532.938	81.38
533.153	95.38
533.367	87.38
533.582	81.38
533.796	83.38
534.011	84.38
534.225	74.38
534.44	81.38
534.654	82.38
534.868	89.38
535.083	82.38
535.297	88.38
535.511	73.38
535.726	79.38
535.94	77.38
536.154	84.38
536.369	84.38
536.583	65.38
536.797	85.38
537.011	82.38
537.225	75.38
537.44	77.38
537.654	89.38
537.868	69.38
538.082	82.38
538.296	71.38
538.51	100.38
538.724	87.38
538.938	93.38
539.153	82.38
539.367	90.38
539.581	77.38
539.795	83.38
540.009	75.38
540.222	90.38
540.436	73.38
540.65	79.38
540.864	86.38
541.078	77.38
541.292	91.38
541.506	81.38
541.72	76.38
541.934	90.38
542.147	87.38
542.361	73.38
542.575	85.38
542.789	88.38
543.002	77.38
543.216	74.38
543.43	84.38
543.644	80.38
543.857	68.38
544.071	81.38
544.285	85.38
544.498	90.38
544.712	86.38
544.925	79.38
545.139	82.38
545.352	81.38
545.566	81.38
545.779	94.38
545.993	74.38
546.206	91.38
546.42	80.38
546.633	80.38
546.847	85.38
547.06	82.38
547.274	93.38
547.487	79.38
547.7	87.38
547.914	83.38
548.127	75.38
548.34	73.38
548.554	86.38
548.767	82.38
548.98	75.38
549.193	78.38
549.407	88.38
549.62	81.38
549.833	80.38
550.046	80.38
550.259	71.38
550.473	77.38
550.686	87.38
550.899	89.38
551.112	99.38
551.325	84.38
551.538	69.38
551.751	81.38
551.964	98.38
552.177	93.38
552.39	84.38
552.603	85.38
552.816	78.38
553.029	89.38
553.242	73.38
553.455	85.38
553.667	98.38
553.88	88.38
554.093	94.38
554.306	79.38
554.519	82.38
554.732	70.38
554.944	78.38
555.157	97.38
555.37	80.38
555.583	83.38
555.795	81.38
556.008	85.38
556.221	78.38
556.433	88.38
556.646	75.38
556.859	79.38
557.071	77.38
557.284	82.38
557.496	98.38
557.709	78.38
557.921	83.38
558.134	81.38
558.346	87.38
558.559	90.38
558.771	84.38
558.984	87.38
559.196	102.38
559.409	84.38
559.621	73.38
559.833	66.38
560.046	80.38
560.258	74.38
560.47	102.38
560.683	102.38
560.895	80.38
561.107	87.38
561.32	93.38
561.532	100.38
561.744	85.38
561.956	78.38
562.168	100.38
562.381	97.38
562.593	85.38
562.805	85.38
563.017	88.38
563.229	76.38
563.441	105.38
563.653	79.38
563.865	90.38
564.077	62.38
564.289	81.38
564.501	89.38
564.713	87.38
564.925	79.38
565.137	78.38
565.349	93.38
565.561	75.38
565.773	95.38
565.985	80.38
566.197	74.38
566.408	74.38
566.62	82.38
566.832	83.38
567.044	85.38
567.255	82.38
567.467	92.38
567.679	93.38
567.891	84.38
568.102	79.38
568.314	87.38
568.526	93.38
568.737	81.38
568.949	79.38
569.161	93.38
569.372	92.38
569.584	81.38
569.795	97.38
570.007	75.38
570.218	81.38
570.43	93.38
570.641	77.38
570.853	77.38
571.064	84.38
571.276	91.38
571.487	86.38
571.698	89.38
571.91	81.38
572.121	74.38
572.333	84.38
572.544	94.38
572.755	67.38
572.966	77.38
573.178	75.38
573.389	84.38
573.6	65.38
573.811	91.38
574.023	77.38
574.234	85.38
574.445	82.38
574.656	71.38
574.867	85.38
575.078	82.38
575.289	77.38
575.501	87.38
575.712	90.38
575.923	93.38
576.134	77.38
576.345	85.38
576.556	76.38
576.767	85.38
576.978	81.38
577.188	84.38
577.399	86.38
577.61	88.38
577.821	94.38
578.032	88.38
578.243	96.38
578.454	81.38
578.665	85.38
578.875	79.38
579.086	85.38
579.297	85.38
579.508	86.38
579.718	71.38
579.929	74.38
580.14	84.38
580.35	86.38
580.561	87.38
580.772	99.38
580.982	82.38
581.193	80.38
581.403	87.38
581.614	79.38
581.825	66.38
582.035	75.38
582.246	78.38
582.456	79.38
582.667	75.38
582.877	93.38
583.087	81.38
583.298	84.38
583.508	84.38
583.719	82.38
583.929	89.38
584.139	85.38
584.35	82.38
584.56	86.38
584.77	90.38
584.981	75.38
585.191	87.38
585.401	85.38
585.611	88.38
585.821	91.38
586.032	93.38
586.242	86.38
586.452	90.38
586.662	84.38
586.872	71.38
587.082	85.38
587.292	87.38
587.502	77.38
587.713	77.38
587.923	79.38
588.133	76.38
588.343	71.38
588.553	86.38
588.762	110.38
588.972	96.38
589.182	123.38
589.392	102.38
589.602	101.38
589.812	135.38
590.022	107.38
590.232	81.38
590.441	73.38
590.651	78.38
590.861	87.38
591.071	85.38
591.281	89.38
591.49	85.38
591.7	97.38
591.91	89.38
592.119	91.38
592.329	76.38
592.539	80.38
592.748	76.38
592.958	75.38
593.167	73.38
593.377	87.38
593.587	96.38
593.796	79.38
594.006	73.38
594.215	84.38
594.424	76.38
594.634	82.38
594.843	74.38
595.053	82.38
595.262	82.38
595.472	76.38
595.681	71.38
595.89	81.38
596.1	81.38
596.309	80.38
596.518	83.38
596.727	77.38
596.937	88.38
597.146	83.38
597.355	83.38
597.564	71.38
597.774	85.38
597.983	83.38
598.192	87.38
598.401	86.38
598.61	100.38
598.819	81.38
599.028	75.38
599.237	85.38
599.446	82.38
599.655	63.38
599.864	85.38
600.073	86.38
600.282	87.38
600.491	71.38
600.7	69.38
600.909	85.38
601.118	75.38
601.327	81.38
601.536	79.38
601.745	78.38
601.953	87.38
602.162	79.38
602.371	83.38
602.58	79.38
602.789	86.38
602.997	99.38
603.206	81.38
603.415	86.38
603.623	80.38
603.832	85.38
604.041	72.38
604.249	92.38
604.458	82.38
604.666	91.38
604.875	79.38
605.084	68.38
605.292	86.38
605.501	95.38
605.709	78.38
605.918	88.38
606.126	71.38
606.334	91.38
606.543	70.38
606.751	85.38
606.96	69.38
607.168	82.38
607.376	85.38
607.585	83.38
607.793	83.38
608.001	79.38
608.21	81.38
608.418	78.38
608.626	84.38
608.834	74.38
609.043	84.38
609.251	85.38
609.459	89.38
609.667	84.38
609.875	86.38
610.083	93.38
610.291	85.38
610.499	73.38
610.707	78.38
610.916	81.38
611.124	93.38
611.332	80.38
611.54	74.38
611.748	87.38
611.955	87.38
612.163	80.38
612.371	90.38
612.579	79.38
612.787	86.38
612.995	80.38
613.203	84.38
613.411	87.38
613.618	79.38
613.826	79.38
614.034	89.38
614.242	72.38
614.449	73.38
614.657	88.38
614.865	84.38
615.072	100.38
615.28	81.38
615.488	70.38
615.695	91.38
615.903	79.38
616.111	80.38
616.318	83.38
616.526	98.38
616.733	83.38
616.941	81.38
617.148	80.38
617.356	104.38
617.563	81.38
617.771	68.38
617.978	83.38
618.185	83.38
618.393	70.38
618.6	90.38
618.807	72.38
619.015	74.38
619.222	67.38
619.429	92.38
619.637	87.38
619.844	89.38
620.051	97.38
620.258	76.38
620.466	68.38
620.673	93.38
620.88	88.38
621.087	91.38
621.294	95.38
621.501	87.38
621.708	86.38
621.915	79.38
622.122	87.38
622.329	82.38
622.536	80.38
622.743	67.38
622.95	77.38
623.157	85.38
623.364	88.38
623.571	78.38
623.778	87.38
623.985	77.38
624.192	85.38
624.399	82.38
624.606	77.38
624.812	84.38
625.019	72.38
625.226	90.38
625.433	86.38
625.639	73.38
625.846	86.38
626.053	81.38
626.259	85.38
626.466	82.38
626.673	73.38
626.879	73.38
627.086	96.38
627.293	96.38
627.499	81.38
627.706	85.38
627.912	75.38
628.119	81.38
628.325	76.38
628.532	79.38
628.738	97.38
628.945	77.38
629.151	67.38
629.357	85.38
629.564	90.38
629.77	81.38
629.976	83.38
630.183	86.38
630.389	81.38
630.595	75.38
630.802	76.38
631.008	75.38
631.214	84.38
631.42	85.38
631.627	94.38
631.833	70.38
632.039	81.38
632.245	80.38
632.451	79.38
632.657	97.38
632.863	95.38
633.069	82.38
633.275	71.38
633.481	81.38
633.688	58.38
633.893	68.38
634.099	81.38
634.305	73.38
634.511	92.38
634.717	73.38
634.923	73.38
635.129	78.38
635.335	73.38
635.541	70.38
635.747	76.38
635.952	77.38
636.158	88.38
636.364	73.38
636.57	85.38
636.775	79.38
636.981	82.38
637.187	73.38
637.392	79.38
637.598	85.38
637.804	84.38
638.009	86.38
638.215	81.38
638.421	85.38
638.626	79.38
638.832	85.38
639.037	84.38
639.243	77.38
639.448	77.38
639.654	85.38
639.859	86.38
640.065	86.38
640.27	80.38
640.475	73.38
640.681	85.38
640.886	71.38
641.091	69.38
641.297	73.38
641.502	77.38
641.707	82.38
641.913	81.38
642.118	80.38
642.323	87.38
642.528	101.38
642.733	75.38
642.939	85.38
643.144	80.38
643.349	77.38
643.554	73.38
643.759	70.38
643.964	77.38
644.169	84.38
644.374	90.38
644.579	82.38
644.784	72.38
644.989	73.38
645.194	63.38
645.399	84.38
645.604	76.38
645.809	74.38
646.014	79.38
646.219	80.38
646.423	79.38
646.628	77.38
646.833	71.38
647.038	75.38
647.243	88.38
647.447	82.38
647.652	87.38
647.857	76.38
648.062	84.38
648.266	91.38
648.471	84.38
648.676	85.38
648.88	74.38
649.085	86.38
649.289	83.38
649.494	86.38
649.698	79.38
649.903	79.38
650.107	87.38
650.312	94.38
650.516	92.38
650.721	81.38
650.925	70.38
651.13	66.38
651.334	86.38
651.539	78.38
651.743	79.38
651.947	86.38
652.152	79.38
652.356	80.38
652.56	91.38
652.764	79.38
652.969	74.38
653.173	83.38
653.377	78.38
653.581	92.38
653.785	81.38
653.99	75.38
654.194	81.38
654.398	78.38
654.602	82.38
654.806	85.38
655.01	84.38
655.214	91.38
655.418	75.38
655.622	91.38
655.826	91.38
656.03	79.38
656.234	75.38
656.438	78.38
656.642	77.38
656.846	79.38
657.049	74.38
657.253	79.38
657.457	77.38
657.661	83.38
657.865	80.38
658.068	71.38
658.272	79.38
658.476	69.38
658.68	81.38
658.883	77.38
659.087	92.38
659.291	95.38
659.494	85.38
659.698	82.38
659.901	75.38
660.105	70.38
660.309	76.38
660.512	85.38
660.716	82.38
660.919	88.38
661.123	78.38
661.326	79.38
661.53	67.38
661.733	79.38
661.936	77.38
662.14	82.38
662.343	91.38
662.546	77.38
662.75	71.38
662.953	83.38
663.156	74.38
663.36	79.38
663.563	91.38
663.766	74.38
663.969	84.38
664.173	84.38
664.376	85.38
664.579	76.38
664.782	79.38
664.985	79.38
665.188	73.38
665.391	85.38
665.594	79.38
665.797	76.38
666	95.38
666.203	88.38
666.406	70.38
666.609	65.38
666.812	91.38
667.015	75.38
667.218	96.38
667.421	69.38
667.624	82.38
667.827	71.38
668.03	89.38
668.232	69.38
668.435	77.38
668.638	78.38
668.841	85.38
669.043	78.38
669.246	78.38
669.449	76.38
669.651	86.38
669.854	80.38
670.057	87.38
670.259	86.38
670.462	72.38
670.665	89.38
670.867	103.38
671.07	80.38
671.272	82.38
671.475	86.38
671.677	88.38
671.88	83.38
672.082	83.38
672.284	64.38
672.487	91.38
672.689	77.38
672.892	87.38
