Data from Soil_75_3_HRD10591_00016.txt Node
Date: Thu Feb 19 11:18:40 EST 2026
User: Yrep
Spectrometer: HR+D1059
Trigger mode: 1
Integration Time (sec): 1.000000E-1
Scans to average: 1
Electric dark correction enabled: true
Nonlinearity correction enabled: false
Boxcar width: 0
XAxis mode: Wavelengths
Number of Pixels in Spectrum: 2048
>>>>>Begin Spectral Data<<<<<
223.165	-19.56
223.4	-19.56
223.635	-19.56
223.869	-12.56
224.104	-10.56
224.338	-22.56
224.573	-18.56
224.808	-15.56
225.042	-9.56
225.277	-7.56
225.511	-2.56
225.746	0.44
225.98	10.44
226.215	12.44
226.449	12.44
226.683	20.44
226.918	33.44
227.152	29.44
227.387	44.44
227.621	36.44
227.856	42.44
228.09	48.44
228.324	51.44
228.559	60.44
228.793	54.44
229.027	69.44
229.262	78.44
229.496	65.44
229.73	66.44
229.964	84.44
230.199	70.44
230.433	76.44
230.667	82.44
230.901	84.44
231.136	73.44
231.37	70.44
231.604	73.44
231.838	77.44
232.072	78.44
232.306	71.44
232.541	96.44
232.775	91.44
233.009	79.44
233.243	89.44
233.477	70.44
233.711	82.44
233.945	78.44
234.179	94.44
234.413	73.44
234.647	83.44
234.881	71.44
235.115	85.44
235.349	71.44
235.583	83.44
235.817	86.44
236.051	74.44
236.285	70.44
236.519	89.44
236.753	74.44
236.987	68.44
237.221	79.44
237.455	77.44
237.689	78.44
237.922	78.44
238.156	71.44
238.39	88.44
238.624	77.44
238.858	74.44
239.091	78.44
239.325	74.44
239.559	76.44
239.793	66.44
240.027	73.44
240.26	82.44
240.494	62.44
240.728	78.44
240.961	82.44
241.195	80.44
241.429	93.44
241.662	84.44
241.896	87.44
242.13	75.44
242.363	78.44
242.597	65.44
242.83	80.44
243.064	84.44
243.298	83.44
243.531	75.44
243.765	76.44
243.998	83.44
244.232	75.44
244.465	73.44
244.699	76.44
244.932	79.44
245.166	74.44
245.399	78.44
245.633	86.44
245.866	82.44
246.099	77.44
246.333	77.44
246.566	63.44
246.8	77.44
247.033	76.44
247.266	77.44
247.5	76.44
247.733	86.44
247.966	83.44
248.2	92.44
248.433	78.44
248.666	70.44
248.899	82.44
249.133	67.44
249.366	78.44
249.599	79.44
249.832	74.44
250.066	86.44
250.299	86.44
250.532	84.44
250.765	79.44
250.998	68.44
251.231	81.44
251.465	76.44
251.698	87.44
251.931	78.44
252.164	74.44
252.397	86.44
252.63	80.44
252.863	72.44
253.096	82.44
253.329	84.44
253.562	84.44
253.795	74.44
254.028	86.44
254.261	71.44
254.494	73.44
254.727	77.44
254.96	82.44
255.193	75.44
255.426	78.44
255.659	88.44
255.892	82.44
256.124	77.44
256.357	78.44
256.59	83.44
256.823	67.44
257.056	72.44
257.289	84.44
257.521	91.44
257.754	80.44
257.987	83.44
258.22	71.44
258.452	80.44
258.685	80.44
258.918	72.44
259.151	90.44
259.383	81.44
259.616	69.44
259.849	81.44
260.081	80.44
260.314	102.44
260.547	82.44
260.779	72.44
261.012	82.44
261.244	74.44
261.477	92.44
261.71	84.44
261.942	80.44
262.175	81.44
262.407	75.44
262.64	67.44
262.872	85.44
263.105	73.44
263.337	88.44
263.57	77.44
263.802	75.44
264.035	99.44
264.267	76.44
264.499	82.44
264.732	92.44
264.964	92.44
265.197	76.44
265.429	91.44
265.661	83.44
265.894	86.44
266.126	90.44
266.358	80.44
266.591	91.44
266.823	96.44
267.055	80.44
267.287	76.44
267.52	86.44
267.752	74.44
267.984	81.44
268.216	83.44
268.448	82.44
268.681	86.44
268.913	83.44
269.145	76.44
269.377	78.44
269.609	81.44
269.841	83.44
270.073	86.44
270.306	82.44
270.538	80.44
270.77	78.44
271.002	99.44
271.234	88.44
271.466	95.44
271.698	78.44
271.93	102.44
272.162	92.44
272.394	79.44
272.626	82.44
272.858	73.44
273.09	79.44
273.322	69.44
273.553	70.44
273.785	85.44
274.017	92.44
274.249	83.44
274.481	68.44
274.713	86.44
274.945	74.44
275.176	82.44
275.408	90.44
275.64	94.44
275.872	94.44
276.104	84.44
276.335	78.44
276.567	86.44
276.799	90.44
277.031	86.44
277.262	76.44
277.494	81.44
277.726	90.44
277.957	78.44
278.189	78.44
278.421	76.44
278.652	85.44
278.884	69.44
279.115	86.44
279.347	85.44
279.579	84.44
279.81	76.44
280.042	95.44
280.273	80.44
280.505	80.44
280.736	76.44
280.968	87.44
281.199	81.44
281.431	80.44
281.662	81.44
281.894	83.44
282.125	91.44
282.356	75.44
282.588	83.44
282.819	91.44
283.051	79.44
283.282	76.44
283.513	72.44
283.745	81.44
283.976	96.44
284.207	78.44
284.439	81.44
284.67	83.44
284.901	72.44
285.132	81.44
285.364	93.44
285.595	68.44
285.826	86.44
286.057	81.44
286.288	86.44
286.52	77.44
286.751	87.44
286.982	75.44
287.213	78.44
287.444	91.44
287.675	85.44
287.906	80.44
288.138	79.44
288.369	91.44
288.6	84.44
288.831	59.44
289.062	83.44
289.293	84.44
289.524	71.44
289.755	75.44
289.986	91.44
290.217	79.44
290.448	88.44
290.679	82.44
290.91	100.44
291.141	79.44
291.371	82.44
291.602	79.44
291.833	86.44
292.064	71.44
292.295	76.44
292.526	72.44
292.757	70.44
292.987	84.44
293.218	79.44
293.449	83.44
293.68	83.44
293.91	68.44
294.141	92.44
294.372	67.44
294.603	88.44
294.833	96.44
295.064	91.44
295.295	92.44
295.525	86.44
295.756	84.44
295.987	77.44
296.217	73.44
296.448	90.44
296.679	82.44
296.909	86.44
297.14	90.44
297.37	98.44
297.601	81.44
297.831	87.44
298.062	90.44
298.292	85.44
298.523	88.44
298.753	84.44
298.984	104.44
299.214	79.44
299.445	72.44
299.675	103.44
299.905	88.44
300.136	90.44
300.366	87.44
300.597	80.44
300.827	88.44
301.057	75.44
301.288	74.44
301.518	88.44
301.748	92.44
301.979	97.44
302.209	93.44
302.439	88.44
302.669	75.44
302.9	99.44
303.13	90.44
303.36	81.44
303.59	76.44
303.82	85.44
304.051	86.44
304.281	79.44
304.511	88.44
304.741	82.44
304.971	91.44
305.201	90.44
305.431	79.44
305.661	85.44
305.891	80.44
306.121	70.44
306.352	79.44
306.582	96.44
306.812	75.44
307.042	83.44
307.272	81.44
307.502	81.44
307.731	79.44
307.961	92.44
308.191	89.44
308.421	91.44
308.651	85.44
308.881	80.44
309.111	86.44
309.341	79.44
309.571	78.44
309.8	88.44
310.03	76.44
310.26	103.44
310.49	87.44
310.72	100.44
310.949	91.44
311.179	80.44
311.409	77.44
311.639	74.44
311.868	95.44
312.098	104.44
312.328	98.44
312.557	87.44
312.787	90.44
313.017	81.44
313.246	76.44
313.476	73.44
313.706	76.44
313.935	71.44
314.165	86.44
314.394	88.44
314.624	82.44
314.853	77.44
315.083	72.44
315.312	101.44
315.542	91.44
315.771	78.44
316.001	84.44
316.23	83.44
316.46	82.44
316.689	80.44
316.919	88.44
317.148	88.44
317.377	83.44
317.607	84.44
317.836	89.44
318.065	92.44
318.295	85.44
318.524	86.44
318.753	86.44
318.983	77.44
319.212	87.44
319.441	81.44
319.67	80.44
319.9	86.44
320.129	83.44
320.358	90.44
320.587	92.44
320.816	96.44
321.046	78.44
321.275	91.44
321.504	89.44
321.733	75.44
321.962	85.44
322.191	73.44
322.42	87.44
322.649	83.44
322.878	80.44
323.108	82.44
323.337	84.44
323.566	83.44
323.795	78.44
324.024	77.44
324.253	73.44
324.482	91.44
324.71	92.44
324.939	82.44
325.168	72.44
325.397	70.44
325.626	101.44
325.855	83.44
326.084	86.44
326.313	92.44
326.542	92.44
326.77	99.44
326.999	83.44
327.228	88.44
327.457	85.44
327.686	75.44
327.914	82.44
328.143	75.44
328.372	82.44
328.6	84.44
328.829	97.44
329.058	84.44
329.287	82.44
329.515	90.44
329.744	87.44
329.972	76.44
330.201	80.44
330.43	81.44
330.658	70.44
330.887	76.44
331.115	89.44
331.344	95.44
331.572	85.44
331.801	68.44
332.03	84.44
332.258	75.44
332.486	86.44
332.715	95.44
332.943	96.44
333.172	95.44
333.4	87.44
333.629	79.44
333.857	87.44
334.085	76.44
334.314	80.44
334.542	78.44
334.771	89.44
334.999	80.44
335.227	79.44
335.455	85.44
335.684	81.44
335.912	79.44
336.14	83.44
336.369	79.44
336.597	77.44
336.825	89.44
337.053	77.44
337.281	70.44
337.51	86.44
337.738	73.44
337.966	78.44
338.194	84.44
338.422	96.44
338.65	96.44
338.878	86.44
339.106	98.44
339.334	82.44
339.562	76.44
339.79	72.44
340.018	72.44
340.246	96.44
340.474	90.44
340.702	90.44
340.93	94.44
341.158	88.44
341.386	82.44
341.614	96.44
341.842	88.44
342.07	87.44
342.298	87.44
342.526	77.44
342.754	74.44
342.981	75.44
343.209	83.44
343.437	106.44
343.665	89.44
343.893	100.44
344.12	83.44
344.348	82.44
344.576	86.44
344.804	76.44
345.031	92.44
345.259	83.44
345.487	82.44
345.714	84.44
345.942	87.44
346.17	86.44
346.397	81.44
346.625	104.44
346.853	63.44
347.08	75.44
347.308	86.44
347.535	90.44
347.763	95.44
347.99	84.44
348.218	79.44
348.445	89.44
348.673	75.44
348.9	90.44
349.128	79.44
349.355	84.44
349.583	88.44
349.81	91.44
350.037	81.44
350.265	98.44
350.492	73.44
350.72	87.44
350.947	79.44
351.174	77.44
351.402	86.44
351.629	85.44
351.856	88.44
352.083	76.44
352.311	80.44
352.538	86.44
352.765	84.44
352.992	83.44
353.22	86.44
353.447	66.44
353.674	89.44
353.901	73.44
354.128	87.44
354.355	78.44
354.583	83.44
354.81	93.44
355.037	88.44
355.264	98.44
355.491	92.44
355.718	90.44
355.945	87.44
356.172	75.44
356.399	88.44
356.626	88.44
356.853	88.44
357.08	90.44
357.307	85.44
357.534	75.44
357.761	92.44
357.988	79.44
358.215	96.44
358.441	83.44
358.668	98.44
358.895	82.44
359.122	78.44
359.349	71.44
359.576	87.44
359.802	76.44
360.029	79.44
360.256	64.44
360.483	84.44
360.709	70.44
360.936	83.44
361.163	89.44
361.39	82.44
361.616	96.44
361.843	86.44
362.07	86.44
362.296	76.44
362.523	76.44
362.749	87.44
362.976	67.44
363.203	89.44
363.429	84.44
363.656	98.44
363.882	80.44
364.109	75.44
364.335	79.44
364.562	84.44
364.788	96.44
365.015	70.44
365.241	79.44
365.468	84.44
365.694	93.44
365.92	80.44
366.147	81.44
366.373	84.44
366.599	88.44
366.826	77.44
367.052	81.44
367.278	89.44
367.505	84.44
367.731	86.44
367.957	84.44
368.184	91.44
368.41	83.44
368.636	80.44
368.862	81.44
369.089	84.44
369.315	88.44
369.541	90.44
369.767	91.44
369.993	87.44
370.219	81.44
370.445	78.44
370.672	72.44
370.898	83.44
371.124	67.44
371.35	94.44
371.576	74.44
371.802	90.44
372.028	82.44
372.254	89.44
372.48	88.44
372.706	76.44
372.932	76.44
373.158	91.44
373.384	100.44
373.61	94.44
373.835	93.44
374.061	84.44
374.287	93.44
374.513	88.44
374.739	80.44
374.965	76.44
375.191	87.44
375.416	79.44
375.642	80.44
375.868	100.44
376.094	77.44
376.319	80.44
376.545	79.44
376.771	75.44
376.997	84.44
377.222	73.44
377.448	88.44
377.674	86.44
377.899	77.44
378.125	89.44
378.35	84.44
378.576	94.44
378.802	86.44
379.027	93.44
379.253	73.44
379.478	91.44
379.704	75.44
379.929	74.44
380.155	95.44
380.38	87.44
380.606	90.44
380.831	83.44
381.057	86.44
381.282	87.44
381.507	86.44
381.733	83.44
381.958	89.44
382.184	75.44
382.409	84.44
382.634	75.44
382.86	85.44
383.085	107.44
383.31	84.44
383.535	85.44
383.761	100.44
383.986	84.44
384.211	69.44
384.436	77.44
384.662	91.44
384.887	82.44
385.112	80.44
385.337	73.44
385.562	86.44
385.787	84.44
386.013	94.44
386.238	94.44
386.463	86.44
386.688	88.44
386.913	93.44
387.138	87.44
387.363	88.44
387.588	86.44
387.813	95.44
388.038	82.44
388.263	71.44
388.488	89.44
388.713	92.44
388.938	97.44
389.163	76.44
389.387	86.44
389.612	87.44
389.837	67.44
390.062	86.44
390.287	79.44
390.512	86.44
390.736	81.44
390.961	84.44
391.186	85.44
391.411	81.44
391.636	85.44
391.86	79.44
392.085	75.44
392.31	71.44
392.534	72.44
392.759	95.44
392.984	76.44
393.208	83.44
393.433	88.44
393.658	75.44
393.882	75.44
394.107	91.44
394.331	76.44
394.556	78.44
394.78	88.44
395.005	95.44
395.229	98.44
395.454	89.44
395.678	89.44
395.903	90.44
396.127	86.44
396.352	85.44
396.576	100.44
396.801	83.44
397.025	87.44
397.249	76.44
397.474	86.44
397.698	83.44
397.922	87.44
398.147	90.44
398.371	70.44
398.595	92.44
398.82	91.44
399.044	88.44
399.268	85.44
399.492	78.44
399.717	93.44
399.941	74.44
400.165	83.44
400.389	86.44
400.613	93.44
400.837	95.44
401.062	86.44
401.286	80.44
401.51	87.44
401.734	81.44
401.958	83.44
402.182	75.44
402.406	88.44
402.63	78.44
402.854	86.44
403.078	92.44
403.302	92.44
403.526	80.44
403.75	69.44
403.974	77.44
404.198	70.44
404.422	82.44
404.645	80.44
404.869	85.44
405.093	83.44
405.317	84.44
405.541	90.44
405.765	84.44
405.988	91.44
406.212	72.44
406.436	86.44
406.66	84.44
406.883	84.44
407.107	85.44
407.331	101.44
407.555	85.44
407.778	85.44
408.002	61.44
408.226	85.44
408.449	76.44
408.673	87.44
408.896	85.44
409.12	77.44
409.344	71.44
409.567	91.44
409.791	70.44
410.014	76.44
410.238	74.44
410.461	93.44
410.685	95.44
410.908	84.44
411.132	97.44
411.355	86.44
411.578	80.44
411.802	83.44
412.025	74.44
412.249	85.44
412.472	82.44
412.695	87.44
412.919	82.44
413.142	83.44
413.365	90.44
413.589	75.44
413.812	90.44
414.035	98.44
414.258	81.44
414.482	79.44
414.705	97.44
414.928	87.44
415.151	78.44
415.374	86.44
415.597	88.44
415.821	67.44
416.044	86.44
416.267	93.44
416.49	90.44
416.713	75.44
416.936	89.44
417.159	70.44
417.382	76.44
417.605	99.44
417.828	83.44
418.051	68.44
418.274	84.44
418.497	78.44
418.72	85.44
418.943	77.44
419.166	76.44
419.389	84.44
419.611	91.44
419.834	78.44
420.057	80.44
420.28	78.44
420.503	87.44
420.726	80.44
420.948	88.44
421.171	79.44
421.394	93.44
421.617	77.44
421.839	84.44
422.062	83.44
422.285	89.44
422.507	83.44
422.73	89.44
422.953	91.44
423.175	84.44
423.398	65.44
423.621	87.44
423.843	82.44
424.066	94.44
424.288	94.44
424.511	88.44
424.733	90.44
424.956	85.44
425.178	75.44
425.401	82.44
425.623	88.44
425.846	81.44
426.068	76.44
426.291	89.44
426.513	78.44
426.735	66.44
426.958	82.44
427.18	83.44
427.402	89.44
427.625	82.44
427.847	68.44
428.069	73.44
428.292	89.44
428.514	79.44
428.736	75.44
428.958	85.44
429.181	91.44
429.403	82.44
429.625	76.44
429.847	75.44
430.069	99.44
430.292	79.44
430.514	76.44
430.736	70.44
430.958	85.44
431.18	86.44
431.402	82.44
431.624	83.44
431.846	80.44
432.068	96.44
432.29	84.44
432.512	89.44
432.734	90.44
432.956	85.44
433.178	79.44
433.4	84.44
433.622	76.44
433.844	82.44
434.066	80.44
434.287	90.44
434.509	87.44
434.731	90.44
434.953	84.44
435.175	83.44
435.397	92.44
435.618	80.44
435.84	87.44
436.062	87.44
436.284	84.44
436.505	84.44
436.727	72.44
436.949	62.44
437.17	77.44
437.392	82.44
437.614	91.44
437.835	87.44
438.057	87.44
438.278	85.44
438.5	85.44
438.721	80.44
438.943	78.44
439.165	92.44
439.386	90.44
439.608	76.44
439.829	81.44
440.05	76.44
440.272	75.44
440.493	79.44
440.715	84.44
440.936	88.44
441.158	96.44
441.379	96.44
441.6	57.44
441.822	89.44
442.043	80.44
442.264	81.44
442.486	79.44
442.707	78.44
442.928	84.44
443.149	68.44
443.371	82.44
443.592	77.44
443.813	81.44
444.034	87.44
444.255	98.44
444.476	93.44
444.698	98.44
444.919	86.44
445.14	164.44
445.361	129.44
445.582	84.44
445.803	78.44
446.024	76.44
446.245	84.44
446.466	85.44
446.687	72.44
446.908	94.44
447.129	81.44
447.35	80.44
447.571	87.44
447.792	78.44
448.013	84.44
448.234	88.44
448.455	78.44
448.675	88.44
448.896	72.44
449.117	66.44
449.338	83.44
449.559	78.44
449.779	68.44
450	87.44
450.221	80.44
450.442	84.44
450.662	81.44
450.883	93.44
451.104	90.44
451.324	84.44
451.545	76.44
451.766	91.44
451.986	86.44
452.207	91.44
452.428	79.44
452.648	86.44
452.869	77.44
453.089	100.44
453.31	79.44
453.53	73.44
453.751	90.44
453.971	68.44
454.192	75.44
454.412	98.44
454.633	82.44
454.853	77.44
455.073	82.44
455.294	90.44
455.514	87.44
455.734	91.44
455.955	75.44
456.175	71.44
456.395	87.44
456.616	87.44
456.836	84.44
457.056	73.44
457.276	73.44
457.497	71.44
457.717	84.44
457.937	102.44
458.157	69.44
458.377	84.44
458.598	73.44
458.818	76.44
459.038	89.44
459.258	72.44
459.478	78.44
459.698	75.44
459.918	78.44
460.138	83.44
460.358	67.44
460.578	82.44
460.798	89.44
461.018	77.44
461.238	85.44
461.458	83.44
461.678	89.44
461.898	82.44
462.118	93.44
462.338	88.44
462.558	76.44
462.777	82.44
462.997	69.44
463.217	86.44
463.437	83.44
463.657	86.44
463.876	90.44
464.096	76.44
464.316	73.44
464.536	95.44
464.755	93.44
464.975	90.44
465.195	84.44
465.414	78.44
465.634	82.44
465.854	77.44
466.073	74.44
466.293	72.44
466.512	81.44
466.732	81.44
466.951	92.44
467.171	94.44
467.391	86.44
467.61	91.44
467.829	86.44
468.049	83.44
468.268	93.44
468.488	78.44
468.707	76.44
468.927	78.44
469.146	82.44
469.365	77.44
469.585	90.44
469.804	98.44
470.023	95.44
470.243	71.44
470.462	84.44
470.681	75.44
470.901	86.44
471.12	83.44
471.339	93.44
471.558	86.44
471.777	77.44
471.997	78.44
472.216	84.44
472.435	86.44
472.654	75.44
472.873	93.44
473.092	102.44
473.311	75.44
473.53	83.44
473.749	80.44
473.968	73.44
474.187	83.44
474.406	79.44
474.625	84.44
474.844	78.44
475.063	83.44
475.282	90.44
475.501	84.44
475.72	89.44
475.939	85.44
476.158	92.44
476.377	84.44
476.596	91.44
476.814	102.44
477.033	78.44
477.252	81.44
477.471	76.44
477.69	67.44
477.908	74.44
478.127	82.44
478.346	96.44
478.564	80.44
478.783	83.44
479.002	96.44
479.22	79.44
479.439	96.44
479.658	78.44
479.876	83.44
480.095	82.44
480.313	78.44
480.532	97.44
480.751	79.44
480.969	87.44
481.188	76.44
481.406	79.44
481.624	80.44
481.843	90.44
482.061	81.44
482.28	66.44
482.498	80.44
482.717	78.44
482.935	81.44
483.153	91.44
483.372	90.44
483.59	75.44
483.808	71.44
484.027	83.44
484.245	75.44
484.463	89.44
484.681	100.44
484.9	78.44
485.118	82.44
485.336	87.44
485.554	86.44
485.772	91.44
485.99	89.44
486.209	89.44
486.427	78.44
486.645	90.44
486.863	82.44
487.081	74.44
487.299	84.44
487.517	80.44
487.735	91.44
487.953	81.44
488.171	87.44
488.389	90.44
488.607	92.44
488.825	85.44
489.043	86.44
489.261	86.44
489.479	89.44
489.696	87.44
489.914	92.44
490.132	53.44
490.35	82.44
490.568	81.44
490.786	99.44
491.003	82.44
491.221	91.44
491.439	92.44
491.657	88.44
491.874	82.44
492.092	82.44
492.31	82.44
492.527	85.44
492.745	88.44
492.963	96.44
493.18	90.44
493.398	68.44
493.615	82.44
493.833	98.44
494.05	80.44
494.268	75.44
494.485	76.44
494.703	86.44
494.92	83.44
495.138	81.44
495.355	85.44
495.573	97.44
495.79	78.44
496.008	84.44
496.225	78.44
496.442	71.44
496.66	84.44
496.877	91.44
497.094	87.44
497.312	100.44
497.529	91.44
497.746	89.44
497.963	81.44
498.181	71.44
498.398	76.44
498.615	83.44
498.832	88.44
499.049	83.44
499.267	90.44
499.484	74.44
499.701	99.44
499.918	87.44
500.135	86.44
500.352	79.44
500.569	87.44
500.786	90.44
501.003	80.44
501.22	91.44
501.437	83.44
501.654	81.44
501.871	90.44
502.088	84.44
502.305	75.44
502.522	98.44
502.739	91.44
502.956	84.44
503.172	96.44
503.389	95.44
503.606	92.44
503.823	86.44
504.04	91.44
504.256	76.44
504.473	79.44
504.69	90.44
504.907	89.44
505.123	92.44
505.34	86.44
505.557	88.44
505.773	83.44
505.99	79.44
506.207	79.44
506.423	105.44
506.64	88.44
506.856	80.44
507.073	93.44
507.289	82.44
507.506	93.44
507.722	81.44
507.939	88.44
508.155	83.44
508.372	85.44
508.588	93.44
508.805	70.44
509.021	79.44
509.238	84.44
509.454	72.44
509.67	100.44
509.887	82.44
510.103	76.44
510.319	84.44
510.536	81.44
510.752	92.44
510.968	80.44
511.184	88.44
511.401	81.44
511.617	84.44
511.833	79.44
512.049	80.44
512.265	86.44
512.481	79.44
512.698	92.44
512.914	82.44
513.13	72.44
513.346	93.44
513.562	73.44
513.778	78.44
513.994	78.44
514.21	70.44
514.426	80.44
514.642	75.44
514.858	91.44
515.074	80.44
515.29	94.44
515.506	89.44
515.721	91.44
515.937	96.44
516.153	79.44
516.369	88.44
516.585	69.44
516.801	79.44
517.016	82.44
517.232	71.44
517.448	86.44
517.664	85.44
517.879	83.44
518.095	90.44
518.311	89.44
518.527	82.44
518.742	88.44
518.958	75.44
519.173	84.44
519.389	79.44
519.605	87.44
519.82	81.44
520.036	89.44
520.251	74.44
520.467	100.44
520.682	85.44
520.898	78.44
521.113	75.44
521.329	83.44
521.544	87.44
521.76	88.44
521.975	94.44
522.19	80.44
522.406	77.44
522.621	84.44
522.836	89.44
523.052	88.44
523.267	94.44
523.482	87.44
523.698	92.44
523.913	85.44
524.128	86.44
524.343	100.44
524.559	91.44
524.774	89.44
524.989	85.44
525.204	89.44
525.419	103.44
525.634	86.44
525.849	90.44
526.064	80.44
526.28	90.44
526.495	91.44
526.71	81.44
526.925	83.44
527.14	99.44
527.355	80.44
527.57	78.44
527.785	75.44
527.999	93.44
528.214	98.44
528.429	72.44
528.644	77.44
528.859	80.44
529.074	80.44
529.289	81.44
529.503	80.44
529.718	79.44
529.933	92.44
530.148	79.44
530.363	90.44
530.577	90.44
530.792	95.44
531.007	92.44
531.221	82.44
531.436	88.44
531.651	93.44
531.865	88.44
532.08	100.44
532.295	90.44
532.509	83.44
532.724	82.44
532.938	82.44
533.153	80.44
533.367	83.44
533.582	76.44
533.796	82.44
534.011	70.44
534.225	80.44
534.44	78.44
534.654	81.44
534.868	89.44
535.083	103.44
535.297	89.44
535.511	92.44
535.726	83.44
535.94	90.44
536.154	89.44
536.369	72.44
536.583	84.44
536.797	98.44
537.011	88.44
537.225	73.44
537.44	80.44
537.654	89.44
537.868	76.44
538.082	86.44
538.296	83.44
538.51	105.44
538.724	89.44
538.938	91.44
539.153	87.44
539.367	86.44
539.581	98.44
539.795	91.44
540.009	100.44
540.222	88.44
540.436	80.44
540.65	84.44
540.864	72.44
541.078	83.44
541.292	89.44
541.506	94.44
541.72	86.44
541.934	83.44
542.147	85.44
542.361	79.44
542.575	88.44
542.789	90.44
543.002	88.44
543.216	83.44
543.43	86.44
543.644	78.44
543.857	84.44
544.071	82.44
544.285	90.44
544.498	87.44
544.712	89.44
544.925	68.44
545.139	84.44
545.352	74.44
545.566	84.44
545.779	84.44
545.993	79.44
546.206	76.44
546.42	85.44
546.633	84.44
546.847	85.44
547.06	81.44
547.274	84.44
547.487	96.44
547.7	82.44
547.914	91.44
548.127	100.44
548.34	73.44
548.554	84.44
548.767	76.44
548.98	87.44
549.193	78.44
549.407	82.44
549.62	86.44
549.833	77.44
550.046	77.44
550.259	87.44
550.473	84.44
550.686	102.44
550.899	90.44
551.112	84.44
551.325	87.44
551.538	88.44
551.751	86.44
551.964	95.44
552.177	85.44
552.39	95.44
552.603	91.44
552.816	83.44
553.029	86.44
553.242	80.44
553.455	91.44
553.667	93.44
553.88	94.44
554.093	80.44
554.306	75.44
554.519	88.44
554.732	78.44
554.944	97.44
555.157	78.44
555.37	90.44
555.583	79.44
555.795	84.44
556.008	86.44
556.221	75.44
556.433	98.44
556.646	79.44
556.859	81.44
557.071	89.44
557.284	91.44
557.496	86.44
557.709	90.44
557.921	95.44
558.134	85.44
558.346	85.44
558.559	83.44
558.771	84.44
558.984	76.44
559.196	95.44
559.409	73.44
559.621	92.44
559.833	87.44
560.046	77.44
560.258	84.44
560.47	71.44
560.683	88.44
560.895	85.44
561.107	88.44
561.32	73.44
561.532	92.44
561.744	85.44
561.956	80.44
562.168	70.44
562.381	75.44
562.593	78.44
562.805	88.44
563.017	95.44
563.229	81.44
563.441	99.44
563.653	89.44
563.865	82.44
564.077	76.44
564.289	98.44
564.501	77.44
564.713	79.44
564.925	88.44
565.137	84.44
565.349	93.44
565.561	84.44
565.773	89.44
565.985	66.44
566.197	96.44
566.408	92.44
566.62	79.44
566.832	85.44
567.044	88.44
567.255	83.44
567.467	89.44
567.679	70.44
567.891	64.44
568.102	86.44
568.314	91.44
568.526	76.44
568.737	85.44
568.949	83.44
569.161	85.44
569.372	86.44
569.584	86.44
569.795	99.44
570.007	82.44
570.218	85.44
570.43	85.44
570.641	85.44
570.853	83.44
571.064	78.44
571.276	76.44
571.487	98.44
571.698	70.44
571.91	87.44
572.121	83.44
572.333	96.44
572.544	77.44
572.755	80.44
572.966	88.44
573.178	86.44
573.389	92.44
573.6	74.44
573.811	71.44
574.023	84.44
574.234	80.44
574.445	91.44
574.656	86.44
574.867	78.44
575.078	97.44
575.289	87.44
575.501	86.44
575.712	80.44
575.923	75.44
576.134	96.44
576.345	73.44
576.556	87.44
576.767	80.44
576.978	75.44
577.188	108.44
577.399	88.44
577.61	73.44
577.821	79.44
578.032	83.44
578.243	91.44
578.454	90.44
578.665	82.44
578.875	89.44
579.086	93.44
579.297	93.44
579.508	97.44
579.718	95.44
579.929	98.44
580.14	85.44
580.35	78.44
580.561	89.44
580.772	78.44
580.982	82.44
581.193	86.44
581.403	84.44
581.614	85.44
581.825	87.44
582.035	87.44
582.246	74.44
582.456	99.44
582.667	93.44
582.877	92.44
583.087	78.44
583.298	80.44
583.508	83.44
583.719	72.44
583.929	82.44
584.139	90.44
584.35	107.44
584.56	99.44
584.77	84.44
584.981	83.44
585.191	96.44
585.401	98.44
585.611	86.44
585.821	91.44
586.032	77.44
586.242	74.44
586.452	98.44
586.662	96.44
586.872	81.44
587.082	87.44
587.292	79.44
587.502	73.44
587.713	82.44
587.923	90.44
588.133	85.44
588.343	105.44
588.553	97.44
588.762	95.44
588.972	97.44
589.182	122.44
589.392	106.44
589.602	107.44
589.812	117.44
590.022	100.44
590.232	80.44
590.441	81.44
590.651	84.44
590.861	83.44
591.071	92.44
591.281	86.44
591.49	75.44
591.7	84.44
591.91	88.44
592.119	80.44
592.329	98.44
592.539	72.44
592.748	91.44
592.958	88.44
593.167	97.44
593.377	82.44
593.587	94.44
593.796	91.44
594.006	90.44
594.215	79.44
594.424	86.44
594.634	88.44
594.843	75.44
595.053	97.44
595.262	95.44
595.472	76.44
595.681	90.44
595.89	92.44
596.1	82.44
596.309	81.44
596.518	78.44
596.727	84.44
596.937	91.44
597.146	92.44
597.355	91.44
597.564	73.44
597.774	96.44
597.983	78.44
598.192	90.44
598.401	82.44
598.61	89.44
598.819	79.44
599.028	88.44
599.237	78.44
599.446	73.44
599.655	82.44
599.864	78.44
600.073	84.44
600.282	83.44
600.491	84.44
600.7	92.44
600.909	81.44
601.118	90.44
601.327	91.44
601.536	82.44
601.745	75.44
601.953	100.44
602.162	84.44
602.371	92.44
602.58	88.44
602.789	91.44
602.997	85.44
603.206	96.44
603.415	91.44
603.623	90.44
603.832	94.44
604.041	77.44
604.249	100.44
604.458	89.44
604.666	73.44
604.875	83.44
605.084	87.44
605.292	89.44
605.501	86.44
605.709	96.44
605.918	89.44
606.126	81.44
606.334	87.44
606.543	96.44
606.751	92.44
606.96	82.44
607.168	99.44
607.376	94.44
607.585	80.44
607.793	74.44
608.001	77.44
608.21	75.44
608.418	87.44
608.626	75.44
608.834	79.44
609.043	90.44
609.251	92.44
609.459	82.44
609.667	86.44
609.875	82.44
610.083	88.44
610.291	88.44
610.499	98.44
610.707	84.44
610.916	76.44
611.124	91.44
611.332	89.44
611.54	80.44
611.748	84.44
611.955	95.44
612.163	87.44
612.371	86.44
612.579	93.44
612.787	88.44
612.995	75.44
613.203	84.44
613.411	91.44
613.618	96.44
613.826	81.44
614.034	71.44
614.242	85.44
614.449	103.44
614.657	86.44
614.865	89.44
615.072	78.44
615.28	93.44
615.488	88.44
615.695	86.44
615.903	85.44
616.111	88.44
616.318	86.44
616.526	86.44
616.733	93.44
616.941	97.44
617.148	74.44
617.356	90.44
617.563	105.44
617.771	92.44
617.978	103.44
618.185	84.44
618.393	75.44
618.6	82.44
618.807	78.44
619.015	97.44
619.222	86.44
619.429	88.44
619.637	85.44
619.844	82.44
620.051	101.44
620.258	75.44
620.466	84.44
620.673	64.44
620.88	67.44
621.087	89.44
621.294	92.44
621.501	99.44
621.708	92.44
621.915	87.44
622.122	80.44
622.329	81.44
622.536	99.44
622.743	97.44
622.95	83.44
623.157	93.44
623.364	95.44
623.571	83.44
623.778	90.44
623.985	87.44
624.192	90.44
624.399	88.44
624.606	72.44
624.812	90.44
625.019	92.44
625.226	96.44
625.433	94.44
625.639	87.44
625.846	92.44
626.053	98.44
626.259	82.44
626.466	84.44
626.673	94.44
626.879	87.44
627.086	86.44
627.293	88.44
627.499	82.44
627.706	89.44
627.912	81.44
628.119	85.44
628.325	88.44
628.532	87.44
628.738	72.44
628.945	80.44
629.151	80.44
629.357	71.44
629.564	89.44
629.77	99.44
629.976	96.44
630.183	90.44
630.389	78.44
630.595	92.44
630.802	95.44
631.008	88.44
631.214	86.44
631.42	90.44
631.627	81.44
631.833	88.44
632.039	84.44
632.245	88.44
632.451	79.44
632.657	89.44
632.863	92.44
633.069	81.44
633.275	81.44
633.481	87.44
633.688	96.44
633.893	81.44
634.099	77.44
634.305	89.44
634.511	81.44
634.717	88.44
634.923	78.44
635.129	78.44
635.335	88.44
635.541	79.44
635.747	81.44
635.952	82.44
636.158	93.44
636.364	87.44
636.57	88.44
636.775	85.44
636.981	75.44
637.187	77.44
637.392	86.44
637.598	72.44
637.804	69.44
638.009	84.44
638.215	93.44
638.421	82.44
638.626	80.44
638.832	80.44
639.037	84.44
639.243	79.44
639.448	75.44
639.654	86.44
639.859	92.44
640.065	76.44
640.27	78.44
640.475	91.44
640.681	90.44
640.886	77.44
641.091	77.44
641.297	96.44
641.502	84.44
641.707	85.44
641.913	78.44
642.118	78.44
642.323	87.44
642.528	82.44
642.733	82.44
642.939	79.44
643.144	85.44
643.349	71.44
643.554	91.44
643.759	82.44
643.964	81.44
644.169	82.44
644.374	83.44
644.579	84.44
644.784	90.44
644.989	102.44
645.194	78.44
645.399	84.44
645.604	90.44
645.809	86.44
646.014	87.44
646.219	79.44
646.423	78.44
646.628	82.44
646.833	87.44
647.038	85.44
647.243	86.44
647.447	102.44
647.652	87.44
647.857	73.44
648.062	76.44
648.266	84.44
648.471	80.44
648.676	87.44
648.88	89.44
649.085	74.44
649.289	85.44
649.494	74.44
649.698	88.44
649.903	85.44
650.107	87.44
650.312	84.44
650.516	75.44
650.721	74.44
650.925	87.44
651.13	94.44
651.334	92.44
651.539	81.44
651.743	76.44
651.947	75.44
652.152	91.44
652.356	85.44
652.56	77.44
652.764	93.44
652.969	78.44
653.173	84.44
653.377	83.44
653.581	75.44
653.785	101.44
653.99	80.44
654.194	82.44
654.398	84.44
654.602	84.44
654.806	75.44
655.01	82.44
655.214	82.44
655.418	95.44
655.622	74.44
655.826	80.44
656.03	90.44
656.234	100.44
656.438	85.44
656.642	82.44
656.846	95.44
657.049	84.44
657.253	79.44
657.457	80.44
657.661	96.44
657.865	78.44
658.068	56.44
658.272	85.44
658.476	76.44
658.68	98.44
658.883	83.44
659.087	88.44
659.291	90.44
659.494	74.44
659.698	80.44
659.901	92.44
660.105	90.44
660.309	83.44
660.512	87.44
660.716	88.44
660.919	91.44
661.123	88.44
661.326	86.44
661.53	82.44
661.733	97.44
661.936	73.44
662.14	78.44
662.343	93.44
662.546	84.44
662.75	76.44
662.953	78.44
663.156	78.44
663.36	87.44
663.563	74.44
663.766	75.44
663.969	85.44
664.173	79.44
664.376	84.44
664.579	87.44
664.782	65.44
664.985	86.44
665.188	100.44
665.391	89.44
665.594	80.44
665.797	82.44
666	85.44
666.203	75.44
666.406	85.44
666.609	81.44
666.812	84.44
667.015	94.44
667.218	96.44
667.421	87.44
667.624	79.44
667.827	70.44
668.03	78.44
668.232	80.44
668.435	84.44
668.638	83.44
668.841	88.44
669.043	84.44
669.246	93.44
669.449	82.44
669.651	86.44
669.854	75.44
670.057	76.44
670.259	75.44
670.462	88.44
670.665	83.44
670.867	71.44
671.07	75.44
671.272	96.44
671.475	86.44
671.677	83.44
671.88	76.44
672.082	66.44
672.284	83.44
672.487	77.44
672.689	86.44
672.892	93.44
