Data from Soil_75_3_HRD10591_00014.txt Node
Date: Thu Feb 19 11:18:39 EST 2026
User: Yrep
Spectrometer: HR+D1059
Trigger mode: 1
Integration Time (sec): 1.000000E-1
Scans to average: 1
Electric dark correction enabled: true
Nonlinearity correction enabled: false
Boxcar width: 0
XAxis mode: Wavelengths
Number of Pixels in Spectrum: 2048
>>>>>Begin Spectral Data<<<<<
223.165	-8.81
223.4	-8.81
223.635	-8.81
223.869	-17.81
224.104	-21.81
224.338	-19.81
224.573	0.19
224.808	-25.81
225.042	-14.81
225.277	-3.81
225.511	1.19
225.746	1.19
225.98	-1.81
226.215	6.19
226.449	16.19
226.683	24.19
226.918	30.19
227.152	35.19
227.387	23.19
227.621	31.19
227.856	44.19
228.09	34.19
228.324	44.19
228.559	64.19
228.793	63.19
229.027	57.19
229.262	54.19
229.496	52.19
229.73	63.19
229.964	71.19
230.199	74.19
230.433	75.19
230.667	68.19
230.901	74.19
231.136	85.19
231.37	68.19
231.604	89.19
231.838	83.19
232.072	78.19
232.306	79.19
232.541	82.19
232.775	73.19
233.009	74.19
233.243	88.19
233.477	71.19
233.711	79.19
233.945	80.19
234.179	81.19
234.413	71.19
234.647	71.19
234.881	86.19
235.115	85.19
235.349	80.19
235.583	72.19
235.817	73.19
236.051	85.19
236.285	79.19
236.519	83.19
236.753	66.19
236.987	70.19
237.221	71.19
237.455	80.19
237.689	85.19
237.922	83.19
238.156	73.19
238.39	77.19
238.624	77.19
238.858	76.19
239.091	72.19
239.325	73.19
239.559	80.19
239.793	72.19
240.027	75.19
240.26	69.19
240.494	90.19
240.728	75.19
240.961	61.19
241.195	72.19
241.429	67.19
241.662	55.19
241.896	74.19
242.13	71.19
242.363	88.19
242.597	75.19
242.83	82.19
243.064	85.19
243.298	73.19
243.531	60.19
243.765	79.19
243.998	79.19
244.232	96.19
244.465	79.19
244.699	81.19
244.932	72.19
245.166	77.19
245.399	66.19
245.633	77.19
245.866	79.19
246.099	87.19
246.333	76.19
246.566	85.19
246.8	84.19
247.033	75.19
247.266	67.19
247.5	77.19
247.733	88.19
247.966	76.19
248.2	77.19
248.433	74.19
248.666	75.19
248.899	95.19
249.133	67.19
249.366	90.19
249.599	75.19
249.832	83.19
250.066	83.19
250.299	84.19
250.532	86.19
250.765	66.19
250.998	88.19
251.231	88.19
251.465	79.19
251.698	77.19
251.931	61.19
252.164	68.19
252.397	72.19
252.63	71.19
252.863	83.19
253.096	84.19
253.329	79.19
253.562	79.19
253.795	87.19
254.028	89.19
254.261	72.19
254.494	82.19
254.727	75.19
254.96	87.19
255.193	76.19
255.426	94.19
255.659	69.19
255.892	90.19
256.124	80.19
256.357	79.19
256.59	93.19
256.823	86.19
257.056	79.19
257.289	87.19
257.521	74.19
257.754	77.19
257.987	73.19
258.22	70.19
258.452	80.19
258.685	71.19
258.918	72.19
259.151	79.19
259.383	83.19
259.616	81.19
259.849	84.19
260.081	85.19
260.314	72.19
260.547	77.19
260.779	87.19
261.012	83.19
261.244	71.19
261.477	69.19
261.71	73.19
261.942	88.19
262.175	72.19
262.407	76.19
262.64	70.19
262.872	89.19
263.105	83.19
263.337	76.19
263.57	77.19
263.802	84.19
264.035	87.19
264.267	93.19
264.499	80.19
264.732	76.19
264.964	71.19
265.197	82.19
265.429	80.19
265.661	81.19
265.894	69.19
266.126	87.19
266.358	80.19
266.591	84.19
266.823	80.19
267.055	77.19
267.287	90.19
267.52	81.19
267.752	90.19
267.984	70.19
268.216	84.19
268.448	66.19
268.681	70.19
268.913	90.19
269.145	74.19
269.377	66.19
269.609	93.19
269.841	88.19
270.073	89.19
270.306	91.19
270.538	83.19
270.77	87.19
271.002	77.19
271.234	81.19
271.466	81.19
271.698	92.19
271.93	87.19
272.162	90.19
272.394	75.19
272.626	79.19
272.858	84.19
273.09	82.19
273.322	100.19
273.553	99.19
273.785	75.19
274.017	89.19
274.249	74.19
274.481	61.19
274.713	68.19
274.945	93.19
275.176	83.19
275.408	80.19
275.64	83.19
275.872	75.19
276.104	81.19
276.335	63.19
276.567	69.19
276.799	75.19
277.031	76.19
277.262	89.19
277.494	87.19
277.726	87.19
277.957	78.19
278.189	82.19
278.421	69.19
278.652	71.19
278.884	83.19
279.115	78.19
279.347	78.19
279.579	73.19
279.81	88.19
280.042	77.19
280.273	60.19
280.505	72.19
280.736	80.19
280.968	88.19
281.199	77.19
281.431	79.19
281.662	81.19
281.894	84.19
282.125	73.19
282.356	80.19
282.588	79.19
282.819	79.19
283.051	90.19
283.282	90.19
283.513	73.19
283.745	79.19
283.976	75.19
284.207	75.19
284.439	81.19
284.67	88.19
284.901	88.19
285.132	79.19
285.364	97.19
285.595	92.19
285.826	71.19
286.057	73.19
286.288	80.19
286.52	82.19
286.751	88.19
286.982	99.19
287.213	76.19
287.444	82.19
287.675	81.19
287.906	95.19
288.138	68.19
288.369	75.19
288.6	85.19
288.831	76.19
289.062	75.19
289.293	87.19
289.524	76.19
289.755	84.19
289.986	78.19
290.217	87.19
290.448	74.19
290.679	86.19
290.91	79.19
291.141	82.19
291.371	90.19
291.602	84.19
291.833	83.19
292.064	83.19
292.295	79.19
292.526	81.19
292.757	76.19
292.987	66.19
293.218	83.19
293.449	87.19
293.68	87.19
293.91	82.19
294.141	89.19
294.372	93.19
294.603	75.19
294.833	84.19
295.064	87.19
295.295	72.19
295.525	77.19
295.756	80.19
295.987	78.19
296.217	75.19
296.448	63.19
296.679	69.19
296.909	82.19
297.14	76.19
297.37	80.19
297.601	87.19
297.831	83.19
298.062	91.19
298.292	79.19
298.523	83.19
298.753	94.19
298.984	73.19
299.214	100.19
299.445	91.19
299.675	86.19
299.905	91.19
300.136	90.19
300.366	90.19
300.597	82.19
300.827	79.19
301.057	77.19
301.288	71.19
301.518	76.19
301.748	75.19
301.979	105.19
302.209	94.19
302.439	81.19
302.669	75.19
302.9	84.19
303.13	88.19
303.36	84.19
303.59	83.19
303.82	76.19
304.051	83.19
304.281	90.19
304.511	99.19
304.741	77.19
304.971	85.19
305.201	92.19
305.431	79.19
305.661	73.19
305.891	87.19
306.121	85.19
306.352	94.19
306.582	81.19
306.812	65.19
307.042	82.19
307.272	81.19
307.502	68.19
307.731	87.19
307.961	87.19
308.191	77.19
308.421	80.19
308.651	92.19
308.881	70.19
309.111	85.19
309.341	79.19
309.571	61.19
309.8	89.19
310.03	96.19
310.26	88.19
310.49	73.19
310.72	83.19
310.949	76.19
311.179	85.19
311.409	79.19
311.639	94.19
311.868	82.19
312.098	88.19
312.328	67.19
312.557	73.19
312.787	86.19
313.017	85.19
313.246	86.19
313.476	76.19
313.706	85.19
313.935	69.19
314.165	92.19
314.394	75.19
314.624	97.19
314.853	83.19
315.083	92.19
315.312	80.19
315.542	89.19
315.771	80.19
316.001	86.19
316.23	76.19
316.46	87.19
316.689	78.19
316.919	82.19
317.148	79.19
317.377	92.19
317.607	79.19
317.836	83.19
318.065	94.19
318.295	84.19
318.524	89.19
318.753	76.19
318.983	79.19
319.212	79.19
319.441	85.19
319.67	74.19
319.9	82.19
320.129	92.19
320.358	80.19
320.587	92.19
320.816	87.19
321.046	77.19
321.275	72.19
321.504	82.19
321.733	73.19
321.962	88.19
322.191	90.19
322.42	69.19
322.649	76.19
322.878	75.19
323.108	79.19
323.337	85.19
323.566	86.19
323.795	82.19
324.024	67.19
324.253	92.19
324.482	70.19
324.71	76.19
324.939	96.19
325.168	87.19
325.397	96.19
325.626	75.19
325.855	87.19
326.084	79.19
326.313	75.19
326.542	79.19
326.77	83.19
326.999	73.19
327.228	100.19
327.457	93.19
327.686	91.19
327.914	80.19
328.143	79.19
328.372	82.19
328.6	95.19
328.829	73.19
329.058	81.19
329.287	91.19
329.515	80.19
329.744	91.19
329.972	95.19
330.201	73.19
330.43	85.19
330.658	78.19
330.887	79.19
331.115	92.19
331.344	83.19
331.572	83.19
331.801	81.19
332.03	76.19
332.258	75.19
332.486	76.19
332.715	76.19
332.943	81.19
333.172	83.19
333.4	80.19
333.629	69.19
333.857	80.19
334.085	78.19
334.314	83.19
334.542	71.19
334.771	91.19
334.999	89.19
335.227	78.19
335.455	68.19
335.684	99.19
335.912	89.19
336.14	86.19
336.369	77.19
336.597	73.19
336.825	84.19
337.053	90.19
337.281	76.19
337.51	68.19
337.738	86.19
337.966	79.19
338.194	81.19
338.422	88.19
338.65	86.19
338.878	87.19
339.106	80.19
339.334	87.19
339.562	72.19
339.79	82.19
340.018	87.19
340.246	77.19
340.474	86.19
340.702	71.19
340.93	84.19
341.158	83.19
341.386	79.19
341.614	76.19
341.842	76.19
342.07	75.19
342.298	90.19
342.526	84.19
342.754	77.19
342.981	79.19
343.209	80.19
343.437	84.19
343.665	93.19
343.893	94.19
344.12	92.19
344.348	90.19
344.576	83.19
344.804	87.19
345.031	86.19
345.259	91.19
345.487	87.19
345.714	88.19
345.942	87.19
346.17	92.19
346.397	77.19
346.625	84.19
346.853	92.19
347.08	72.19
347.308	86.19
347.535	72.19
347.763	88.19
347.99	80.19
348.218	82.19
348.445	68.19
348.673	86.19
348.9	83.19
349.128	90.19
349.355	86.19
349.583	96.19
349.81	88.19
350.037	83.19
350.265	83.19
350.492	82.19
350.72	86.19
350.947	79.19
351.174	94.19
351.402	81.19
351.629	84.19
351.856	74.19
352.083	86.19
352.311	76.19
352.538	78.19
352.765	84.19
352.992	84.19
353.22	83.19
353.447	79.19
353.674	84.19
353.901	75.19
354.128	87.19
354.355	77.19
354.583	89.19
354.81	75.19
355.037	73.19
355.264	93.19
355.491	89.19
355.718	87.19
355.945	76.19
356.172	95.19
356.399	90.19
356.626	84.19
356.853	79.19
357.08	91.19
357.307	77.19
357.534	87.19
357.761	85.19
357.988	81.19
358.215	78.19
358.441	83.19
358.668	75.19
358.895	85.19
359.122	84.19
359.349	72.19
359.576	64.19
359.802	94.19
360.029	79.19
360.256	90.19
360.483	82.19
360.709	86.19
360.936	89.19
361.163	88.19
361.39	81.19
361.616	72.19
361.843	89.19
362.07	85.19
362.296	93.19
362.523	75.19
362.749	93.19
362.976	81.19
363.203	72.19
363.429	81.19
363.656	83.19
363.882	71.19
364.109	87.19
364.335	94.19
364.562	88.19
364.788	89.19
365.015	90.19
365.241	76.19
365.468	75.19
365.694	104.19
365.92	77.19
366.147	86.19
366.373	78.19
366.599	72.19
366.826	83.19
367.052	79.19
367.278	77.19
367.505	87.19
367.731	97.19
367.957	74.19
368.184	76.19
368.41	73.19
368.636	80.19
368.862	66.19
369.089	71.19
369.315	73.19
369.541	81.19
369.767	83.19
369.993	79.19
370.219	81.19
370.445	96.19
370.672	84.19
370.898	83.19
371.124	87.19
371.35	77.19
371.576	73.19
371.802	73.19
372.028	78.19
372.254	89.19
372.48	81.19
372.706	72.19
372.932	86.19
373.158	93.19
373.384	70.19
373.61	64.19
373.835	83.19
374.061	87.19
374.287	77.19
374.513	83.19
374.739	82.19
374.965	87.19
375.191	77.19
375.416	85.19
375.642	74.19
375.868	81.19
376.094	85.19
376.319	72.19
376.545	70.19
376.771	73.19
376.997	71.19
377.222	75.19
377.448	81.19
377.674	93.19
377.899	87.19
378.125	88.19
378.35	81.19
378.576	71.19
378.802	80.19
379.027	88.19
379.253	71.19
379.478	84.19
379.704	85.19
379.929	80.19
380.155	83.19
380.38	94.19
380.606	77.19
380.831	93.19
381.057	76.19
381.282	87.19
381.507	83.19
381.733	81.19
381.958	83.19
382.184	81.19
382.409	82.19
382.634	79.19
382.86	91.19
383.085	92.19
383.31	92.19
383.535	87.19
383.761	95.19
383.986	79.19
384.211	83.19
384.436	88.19
384.662	75.19
384.887	88.19
385.112	78.19
385.337	87.19
385.562	77.19
385.787	86.19
386.013	80.19
386.238	99.19
386.463	81.19
386.688	91.19
386.913	76.19
387.138	94.19
387.363	79.19
387.588	77.19
387.813	79.19
388.038	75.19
388.263	77.19
388.488	71.19
388.713	93.19
388.938	89.19
389.163	71.19
389.387	82.19
389.612	75.19
389.837	70.19
390.062	75.19
390.287	77.19
390.512	82.19
390.736	86.19
390.961	74.19
391.186	82.19
391.411	76.19
391.636	79.19
391.86	90.19
392.085	76.19
392.31	74.19
392.534	69.19
392.759	92.19
392.984	79.19
393.208	93.19
393.433	115.19
393.658	87.19
393.882	81.19
394.107	80.19
394.331	81.19
394.556	85.19
394.78	77.19
395.005	92.19
395.229	76.19
395.454	80.19
395.678	79.19
395.903	83.19
396.127	79.19
396.352	91.19
396.576	62.19
396.801	100.19
397.025	92.19
397.249	76.19
397.474	78.19
397.698	82.19
397.922	75.19
398.147	85.19
398.371	84.19
398.595	88.19
398.82	83.19
399.044	77.19
399.268	79.19
399.492	75.19
399.717	84.19
399.941	81.19
400.165	85.19
400.389	80.19
400.613	72.19
400.837	76.19
401.062	86.19
401.286	80.19
401.51	89.19
401.734	74.19
401.958	92.19
402.182	88.19
402.406	84.19
402.63	78.19
402.854	80.19
403.078	83.19
403.302	86.19
403.526	71.19
403.75	89.19
403.974	71.19
404.198	80.19
404.422	97.19
404.645	81.19
404.869	78.19
405.093	83.19
405.317	83.19
405.541	93.19
405.765	78.19
405.988	70.19
406.212	93.19
406.436	74.19
406.66	84.19
406.883	93.19
407.107	79.19
407.331	80.19
407.555	87.19
407.778	75.19
408.002	76.19
408.226	86.19
408.449	92.19
408.673	85.19
408.896	84.19
409.12	78.19
409.344	92.19
409.567	83.19
409.791	76.19
410.014	70.19
410.238	90.19
410.461	80.19
410.685	85.19
410.908	82.19
411.132	85.19
411.355	79.19
411.578	87.19
411.802	89.19
412.025	83.19
412.249	87.19
412.472	79.19
412.695	90.19
412.919	86.19
413.142	72.19
413.365	80.19
413.589	79.19
413.812	76.19
414.035	80.19
414.258	85.19
414.482	85.19
414.705	88.19
414.928	83.19
415.151	74.19
415.374	69.19
415.597	76.19
415.821	77.19
416.044	83.19
416.267	85.19
416.49	75.19
416.713	71.19
416.936	68.19
417.159	74.19
417.382	75.19
417.605	68.19
417.828	83.19
418.051	78.19
418.274	93.19
418.497	74.19
418.72	91.19
418.943	84.19
419.166	77.19
419.389	88.19
419.611	69.19
419.834	80.19
420.057	71.19
420.28	72.19
420.503	71.19
420.726	90.19
420.948	82.19
421.171	100.19
421.394	83.19
421.617	82.19
421.839	84.19
422.062	76.19
422.285	94.19
422.507	93.19
422.73	100.19
422.953	107.19
423.175	82.19
423.398	90.19
423.621	81.19
423.843	84.19
424.066	83.19
424.288	72.19
424.511	74.19
424.733	75.19
424.956	91.19
425.178	76.19
425.401	91.19
425.623	65.19
425.846	85.19
426.068	92.19
426.291	72.19
426.513	73.19
426.735	75.19
426.958	92.19
427.18	77.19
427.402	83.19
427.625	87.19
427.847	91.19
428.069	62.19
428.292	79.19
428.514	102.19
428.736	78.19
428.958	82.19
429.181	82.19
429.403	96.19
429.625	81.19
429.847	91.19
430.069	91.19
430.292	80.19
430.514	91.19
430.736	81.19
430.958	94.19
431.18	84.19
431.402	86.19
431.624	85.19
431.846	81.19
432.068	86.19
432.29	78.19
432.512	78.19
432.734	88.19
432.956	85.19
433.178	87.19
433.4	89.19
433.622	84.19
433.844	81.19
434.066	77.19
434.287	89.19
434.509	75.19
434.731	73.19
434.953	80.19
435.175	87.19
435.397	84.19
435.618	74.19
435.84	78.19
436.062	90.19
436.284	81.19
436.505	69.19
436.727	83.19
436.949	86.19
437.17	87.19
437.392	73.19
437.614	96.19
437.835	75.19
438.057	67.19
438.278	83.19
438.5	83.19
438.721	66.19
438.943	86.19
439.165	85.19
439.386	105.19
439.608	83.19
439.829	69.19
440.05	63.19
440.272	95.19
440.493	70.19
440.715	85.19
440.936	82.19
441.158	87.19
441.379	72.19
441.6	86.19
441.822	83.19
442.043	75.19
442.264	68.19
442.486	95.19
442.707	85.19
442.928	95.19
443.149	75.19
443.371	88.19
443.592	90.19
443.813	83.19
444.034	83.19
444.255	88.19
444.476	78.19
444.698	86.19
444.919	67.19
445.14	160.19
445.361	123.19
445.582	92.19
445.803	87.19
446.024	74.19
446.245	88.19
446.466	81.19
446.687	75.19
446.908	89.19
447.129	94.19
447.35	81.19
447.571	71.19
447.792	79.19
448.013	83.19
448.234	86.19
448.455	81.19
448.675	80.19
448.896	94.19
449.117	62.19
449.338	68.19
449.559	69.19
449.779	79.19
450	77.19
450.221	75.19
450.442	73.19
450.662	72.19
450.883	67.19
451.104	89.19
451.324	73.19
451.545	59.19
451.766	86.19
451.986	82.19
452.207	71.19
452.428	76.19
452.648	81.19
452.869	71.19
453.089	69.19
453.31	80.19
453.53	77.19
453.751	72.19
453.971	75.19
454.192	85.19
454.412	68.19
454.633	80.19
454.853	72.19
455.073	77.19
455.294	84.19
455.514	88.19
455.734	80.19
455.955	84.19
456.175	73.19
456.395	73.19
456.616	75.19
456.836	70.19
457.056	91.19
457.276	76.19
457.497	79.19
457.717	85.19
457.937	83.19
458.157	81.19
458.377	73.19
458.598	84.19
458.818	69.19
459.038	88.19
459.258	75.19
459.478	72.19
459.698	75.19
459.918	90.19
460.138	91.19
460.358	69.19
460.578	80.19
460.798	80.19
461.018	84.19
461.238	74.19
461.458	89.19
461.678	83.19
461.898	87.19
462.118	71.19
462.338	86.19
462.558	87.19
462.777	81.19
462.997	74.19
463.217	83.19
463.437	75.19
463.657	75.19
463.876	80.19
464.096	88.19
464.316	93.19
464.536	89.19
464.755	82.19
464.975	88.19
465.195	91.19
465.414	87.19
465.634	82.19
465.854	94.19
466.073	83.19
466.293	85.19
466.512	72.19
466.732	71.19
466.951	97.19
467.171	84.19
467.391	86.19
467.61	77.19
467.829	79.19
468.049	62.19
468.268	67.19
468.488	88.19
468.707	75.19
468.927	75.19
469.146	87.19
469.365	86.19
469.585	85.19
469.804	79.19
470.023	79.19
470.243	86.19
470.462	92.19
470.681	89.19
470.901	84.19
471.12	78.19
471.339	79.19
471.558	82.19
471.777	90.19
471.997	88.19
472.216	72.19
472.435	75.19
472.654	78.19
472.873	93.19
473.092	93.19
473.311	74.19
473.53	88.19
473.749	90.19
473.968	64.19
474.187	77.19
474.406	80.19
474.625	72.19
474.844	83.19
475.063	83.19
475.282	92.19
475.501	87.19
475.72	87.19
475.939	93.19
476.158	95.19
476.377	96.19
476.596	75.19
476.814	79.19
477.033	75.19
477.252	71.19
477.471	73.19
477.69	87.19
477.908	85.19
478.127	88.19
478.346	81.19
478.564	80.19
478.783	72.19
479.002	77.19
479.22	92.19
479.439	84.19
479.658	94.19
479.876	80.19
480.095	80.19
480.313	75.19
480.532	87.19
480.751	71.19
480.969	80.19
481.188	93.19
481.406	81.19
481.624	71.19
481.843	73.19
482.061	86.19
482.28	90.19
482.498	85.19
482.717	83.19
482.935	71.19
483.153	75.19
483.372	78.19
483.59	80.19
483.808	81.19
484.027	69.19
484.245	86.19
484.463	93.19
484.681	85.19
484.9	78.19
485.118	81.19
485.336	88.19
485.554	81.19
485.772	86.19
485.99	74.19
486.209	84.19
486.427	72.19
486.645	83.19
486.863	85.19
487.081	82.19
487.299	78.19
487.517	95.19
487.735	81.19
487.953	85.19
488.171	80.19
488.389	80.19
488.607	70.19
488.825	72.19
489.043	82.19
489.261	81.19
489.479	63.19
489.696	86.19
489.914	76.19
490.132	74.19
490.35	95.19
490.568	66.19
490.786	79.19
491.003	83.19
491.221	90.19
491.439	85.19
491.657	87.19
491.874	83.19
492.092	95.19
492.31	83.19
492.527	73.19
492.745	72.19
492.963	87.19
493.18	88.19
493.398	79.19
493.615	70.19
493.833	74.19
494.05	83.19
494.268	80.19
494.485	82.19
494.703	88.19
494.92	81.19
495.138	73.19
495.355	92.19
495.573	83.19
495.79	77.19
496.008	79.19
496.225	82.19
496.442	98.19
496.66	87.19
496.877	88.19
497.094	75.19
497.312	83.19
497.529	79.19
497.746	83.19
497.963	90.19
498.181	79.19
498.398	96.19
498.615	88.19
498.832	74.19
499.049	85.19
499.267	88.19
499.484	96.19
499.701	75.19
499.918	81.19
500.135	76.19
500.352	84.19
500.569	77.19
500.786	87.19
501.003	82.19
501.22	80.19
501.437	84.19
501.654	73.19
501.871	78.19
502.088	75.19
502.305	83.19
502.522	76.19
502.739	85.19
502.956	80.19
503.172	97.19
503.389	75.19
503.606	77.19
503.823	72.19
504.04	92.19
504.256	78.19
504.473	80.19
504.69	80.19
504.907	75.19
505.123	74.19
505.34	80.19
505.557	88.19
505.773	73.19
505.99	71.19
506.207	72.19
506.423	74.19
506.64	86.19
506.856	89.19
507.073	95.19
507.289	91.19
507.506	83.19
507.722	80.19
507.939	87.19
508.155	92.19
508.372	87.19
508.588	86.19
508.805	83.19
509.021	79.19
509.238	83.19
509.454	79.19
509.67	68.19
509.887	101.19
510.103	73.19
510.319	90.19
510.536	86.19
510.752	80.19
510.968	90.19
511.184	83.19
511.401	80.19
511.617	85.19
511.833	79.19
512.049	92.19
512.265	78.19
512.481	77.19
512.698	83.19
512.914	80.19
513.13	81.19
513.346	80.19
513.562	78.19
513.778	83.19
513.994	89.19
514.21	69.19
514.426	72.19
514.642	79.19
514.858	83.19
515.074	83.19
515.29	88.19
515.506	95.19
515.721	90.19
515.937	86.19
516.153	75.19
516.369	90.19
516.585	79.19
516.801	79.19
517.016	89.19
517.232	73.19
517.448	94.19
517.664	80.19
517.879	80.19
518.095	72.19
518.311	68.19
518.527	85.19
518.742	84.19
518.958	88.19
519.173	96.19
519.389	69.19
519.605	82.19
519.82	92.19
520.036	105.19
520.251	70.19
520.467	90.19
520.682	83.19
520.898	89.19
521.113	83.19
521.329	74.19
521.544	75.19
521.76	85.19
521.975	80.19
522.19	81.19
522.406	74.19
522.621	97.19
522.836	89.19
523.052	91.19
523.267	77.19
523.482	88.19
523.698	87.19
523.913	90.19
524.128	85.19
524.343	74.19
524.559	79.19
524.774	86.19
524.989	90.19
525.204	77.19
525.419	84.19
525.634	80.19
525.849	72.19
526.064	78.19
526.28	101.19
526.495	80.19
526.71	106.19
526.925	75.19
527.14	102.19
527.355	97.19
527.57	81.19
527.785	69.19
527.999	87.19
528.214	87.19
528.429	104.19
528.644	88.19
528.859	91.19
529.074	76.19
529.289	80.19
529.503	69.19
529.718	86.19
529.933	79.19
530.148	96.19
530.363	80.19
530.577	77.19
530.792	81.19
531.007	96.19
531.221	78.19
531.436	85.19
531.651	82.19
531.865	71.19
532.08	81.19
532.295	87.19
532.509	84.19
532.724	90.19
532.938	79.19
533.153	73.19
533.367	71.19
533.582	90.19
533.796	85.19
534.011	88.19
534.225	72.19
534.44	83.19
534.654	86.19
534.868	70.19
535.083	103.19
535.297	75.19
535.511	95.19
535.726	88.19
535.94	83.19
536.154	84.19
536.369	87.19
536.583	85.19
536.797	86.19
537.011	86.19
537.225	85.19
537.44	79.19
537.654	86.19
537.868	74.19
538.082	93.19
538.296	77.19
538.51	89.19
538.724	84.19
538.938	78.19
539.153	75.19
539.367	91.19
539.581	94.19
539.795	86.19
540.009	67.19
540.222	81.19
540.436	88.19
540.65	94.19
540.864	83.19
541.078	83.19
541.292	76.19
541.506	76.19
541.72	81.19
541.934	83.19
542.147	75.19
542.361	92.19
542.575	97.19
542.789	101.19
543.002	75.19
543.216	87.19
543.43	79.19
543.644	80.19
543.857	71.19
544.071	90.19
544.285	85.19
544.498	94.19
544.712	81.19
544.925	85.19
545.139	85.19
545.352	88.19
545.566	85.19
545.779	79.19
545.993	77.19
546.206	79.19
546.42	93.19
546.633	73.19
546.847	98.19
547.06	83.19
547.274	92.19
547.487	85.19
547.7	87.19
547.914	80.19
548.127	89.19
548.34	88.19
548.554	99.19
548.767	97.19
548.98	82.19
549.193	67.19
549.407	95.19
549.62	98.19
549.833	92.19
550.046	79.19
550.259	91.19
550.473	104.19
550.686	94.19
550.899	109.19
551.112	88.19
551.325	92.19
551.538	109.19
551.751	106.19
551.964	82.19
552.177	84.19
552.39	86.19
552.603	99.19
552.816	101.19
553.029	91.19
553.242	88.19
553.455	91.19
553.667	97.19
553.88	115.19
554.093	98.19
554.306	97.19
554.519	107.19
554.732	103.19
554.944	89.19
555.157	98.19
555.37	95.19
555.583	99.19
555.795	80.19
556.008	95.19
556.221	107.19
556.433	104.19
556.646	95.19
556.859	89.19
557.071	93.19
557.284	104.19
557.496	99.19
557.709	93.19
557.921	97.19
558.134	94.19
558.346	94.19
558.559	83.19
558.771	92.19
558.984	113.19
559.196	104.19
559.409	87.19
559.621	111.19
559.833	86.19
560.046	93.19
560.258	99.19
560.47	88.19
560.683	79.19
560.895	81.19
561.107	81.19
561.32	86.19
561.532	88.19
561.744	100.19
561.956	83.19
562.168	80.19
562.381	93.19
562.593	79.19
562.805	88.19
563.017	72.19
563.229	93.19
563.441	83.19
563.653	82.19
563.865	87.19
564.077	101.19
564.289	80.19
564.501	84.19
564.713	95.19
564.925	95.19
565.137	91.19
565.349	67.19
565.561	80.19
565.773	83.19
565.985	86.19
566.197	81.19
566.408	89.19
566.62	88.19
566.832	71.19
567.044	81.19
567.255	88.19
567.467	79.19
567.679	72.19
567.891	75.19
568.102	90.19
568.314	90.19
568.526	92.19
568.737	87.19
568.949	91.19
569.161	87.19
569.372	100.19
569.584	87.19
569.795	88.19
570.007	74.19
570.218	87.19
570.43	87.19
570.641	73.19
570.853	76.19
571.064	95.19
571.276	91.19
571.487	88.19
571.698	81.19
571.91	90.19
572.121	80.19
572.333	94.19
572.544	83.19
572.755	101.19
572.966	93.19
573.178	84.19
573.389	79.19
573.6	84.19
573.811	81.19
574.023	60.19
574.234	92.19
574.445	92.19
574.656	83.19
574.867	91.19
575.078	94.19
575.289	93.19
575.501	89.19
575.712	78.19
575.923	88.19
576.134	80.19
576.345	89.19
576.556	96.19
576.767	74.19
576.978	73.19
577.188	82.19
577.399	85.19
577.61	89.19
577.821	84.19
578.032	78.19
578.243	80.19
578.454	72.19
578.665	90.19
578.875	81.19
579.086	89.19
579.297	76.19
579.508	93.19
579.718	78.19
579.929	90.19
580.14	102.19
580.35	82.19
580.561	81.19
580.772	85.19
580.982	80.19
581.193	79.19
581.403	92.19
581.614	75.19
581.825	73.19
582.035	82.19
582.246	94.19
582.456	83.19
582.667	79.19
582.877	78.19
583.087	94.19
583.298	87.19
583.508	83.19
583.719	92.19
583.929	102.19
584.139	75.19
584.35	87.19
584.56	100.19
584.77	81.19
584.981	80.19
585.191	85.19
585.401	92.19
585.611	71.19
585.821	102.19
586.032	105.19
586.242	89.19
586.452	90.19
586.662	87.19
586.872	96.19
587.082	84.19
587.292	83.19
587.502	79.19
587.713	97.19
587.923	82.19
588.133	101.19
588.343	102.19
588.553	95.19
588.762	101.19
588.972	160.19
589.182	213.19
589.392	205.19
589.602	173.19
589.812	200.19
590.022	162.19
590.232	123.19
590.441	95.19
590.651	104.19
590.861	71.19
591.071	101.19
591.281	86.19
591.49	91.19
591.7	95.19
591.91	79.19
592.119	79.19
592.329	95.19
592.539	93.19
592.748	83.19
592.958	97.19
593.167	82.19
593.377	89.19
593.587	112.19
593.796	103.19
594.006	78.19
594.215	86.19
594.424	93.19
594.634	85.19
594.843	80.19
595.053	82.19
595.262	86.19
595.472	86.19
595.681	100.19
595.89	87.19
596.1	89.19
596.309	87.19
596.518	92.19
596.727	77.19
596.937	87.19
597.146	83.19
597.355	96.19
597.564	96.19
597.774	84.19
597.983	72.19
598.192	69.19
598.401	86.19
598.61	92.19
598.819	93.19
599.028	91.19
599.237	96.19
599.446	101.19
599.655	90.19
599.864	84.19
600.073	86.19
600.282	94.19
600.491	97.19
600.7	94.19
600.909	72.19
601.118	89.19
601.327	102.19
601.536	76.19
601.745	93.19
601.953	84.19
602.162	75.19
602.371	71.19
602.58	77.19
602.789	91.19
602.997	83.19
603.206	97.19
603.415	98.19
603.623	95.19
603.832	84.19
604.041	95.19
604.249	95.19
604.458	94.19
604.666	92.19
604.875	78.19
605.084	78.19
605.292	89.19
605.501	80.19
605.709	80.19
605.918	97.19
606.126	75.19
606.334	88.19
606.543	102.19
606.751	83.19
606.96	88.19
607.168	88.19
607.376	106.19
607.585	93.19
607.793	102.19
608.001	94.19
608.21	81.19
608.418	84.19
608.626	96.19
608.834	88.19
609.043	95.19
609.251	93.19
609.459	77.19
609.667	91.19
609.875	105.19
610.083	94.19
610.291	93.19
610.499	102.19
610.707	95.19
610.916	86.19
611.124	107.19
611.332	99.19
611.54	83.19
611.748	85.19
611.955	84.19
612.163	98.19
612.371	109.19
612.579	84.19
612.787	95.19
612.995	93.19
613.203	103.19
613.411	94.19
613.618	95.19
613.826	95.19
614.034	97.19
614.242	83.19
614.449	81.19
614.657	96.19
614.865	75.19
615.072	85.19
615.28	111.19
615.488	89.19
615.695	90.19
615.903	100.19
616.111	108.19
616.318	122.19
616.526	116.19
616.733	110.19
616.941	102.19
617.148	109.19
617.356	99.19
617.563	106.19
617.771	107.19
617.978	98.19
618.185	103.19
618.393	93.19
618.6	88.19
618.807	93.19
619.015	89.19
619.222	97.19
619.429	96.19
619.637	112.19
619.844	97.19
620.051	84.19
620.258	93.19
620.466	91.19
620.673	111.19
620.88	90.19
621.087	83.19
621.294	87.19
621.501	103.19
621.708	93.19
621.915	90.19
622.122	83.19
622.329	93.19
622.536	96.19
622.743	99.19
622.95	87.19
623.157	81.19
623.364	87.19
623.571	79.19
623.778	90.19
623.985	94.19
624.192	83.19
624.399	90.19
624.606	107.19
624.812	89.19
625.019	83.19
625.226	86.19
625.433	86.19
625.639	97.19
625.846	80.19
626.053	83.19
626.259	100.19
626.466	101.19
626.673	92.19
626.879	96.19
627.086	84.19
627.293	95.19
627.499	79.19
627.706	90.19
627.912	84.19
628.119	94.19
628.325	81.19
628.532	79.19
628.738	82.19
628.945	80.19
629.151	79.19
629.357	88.19
629.564	88.19
629.77	81.19
629.976	93.19
630.183	87.19
630.389	79.19
630.595	72.19
630.802	68.19
631.008	73.19
631.214	75.19
631.42	89.19
631.627	83.19
631.833	72.19
632.039	86.19
632.245	79.19
632.451	72.19
632.657	80.19
632.863	87.19
633.069	83.19
633.275	93.19
633.481	80.19
633.688	79.19
633.893	83.19
634.099	74.19
634.305	71.19
634.511	72.19
634.717	87.19
634.923	77.19
635.129	72.19
635.335	72.19
635.541	78.19
635.747	71.19
635.952	91.19
636.158	100.19
636.364	82.19
636.57	73.19
636.775	84.19
636.981	84.19
637.187	86.19
637.392	83.19
637.598	78.19
637.804	96.19
638.009	97.19
638.215	82.19
638.421	78.19
638.626	78.19
638.832	79.19
639.037	76.19
639.243	65.19
639.448	82.19
639.654	89.19
639.859	82.19
640.065	88.19
640.27	81.19
640.475	89.19
640.681	96.19
640.886	86.19
641.091	75.19
641.297	83.19
641.502	93.19
641.707	105.19
641.913	83.19
642.118	91.19
642.323	84.19
642.528	74.19
642.733	93.19
642.939	88.19
643.144	77.19
643.349	79.19
643.554	84.19
643.759	75.19
643.964	80.19
644.169	90.19
644.374	84.19
644.579	66.19
644.784	93.19
644.989	73.19
645.194	83.19
645.399	77.19
645.604	85.19
645.809	86.19
646.014	79.19
646.219	94.19
646.423	95.19
646.628	90.19
646.833	83.19
647.038	78.19
647.243	87.19
647.447	87.19
647.652	93.19
647.857	71.19
648.062	70.19
648.266	87.19
648.471	77.19
648.676	85.19
648.88	79.19
649.085	78.19
649.289	91.19
649.494	97.19
649.698	92.19
649.903	77.19
650.107	78.19
650.312	92.19
650.516	81.19
650.721	81.19
650.925	78.19
651.13	82.19
651.334	83.19
651.539	82.19
651.743	87.19
651.947	83.19
652.152	77.19
652.356	90.19
652.56	83.19
652.764	92.19
652.969	79.19
653.173	79.19
653.377	88.19
653.581	83.19
653.785	90.19
653.99	72.19
654.194	65.19
654.398	82.19
654.602	87.19
654.806	76.19
655.01	74.19
655.214	80.19
655.418	80.19
655.622	84.19
655.826	72.19
656.03	89.19
656.234	80.19
656.438	85.19
656.642	71.19
656.846	95.19
657.049	73.19
657.253	78.19
657.457	95.19
657.661	66.19
657.865	71.19
658.068	76.19
658.272	76.19
658.476	85.19
658.68	76.19
658.883	85.19
659.087	89.19
659.291	81.19
659.494	81.19
659.698	72.19
659.901	81.19
660.105	87.19
660.309	83.19
660.512	90.19
660.716	67.19
660.919	73.19
661.123	96.19
661.326	70.19
661.53	78.19
661.733	83.19
661.936	87.19
662.14	77.19
662.343	69.19
662.546	95.19
662.75	83.19
662.953	72.19
663.156	74.19
663.36	80.19
663.563	77.19
663.766	73.19
663.969	92.19
664.173	72.19
664.376	77.19
664.579	85.19
664.782	89.19
664.985	82.19
665.188	88.19
665.391	79.19
665.594	79.19
665.797	73.19
666	76.19
666.203	81.19
666.406	92.19
666.609	76.19
666.812	87.19
667.015	71.19
667.218	87.19
667.421	88.19
667.624	86.19
667.827	89.19
668.03	89.19
668.232	83.19
668.435	74.19
668.638	72.19
668.841	85.19
669.043	88.19
669.246	84.19
669.449	55.19
669.651	77.19
669.854	73.19
670.057	77.19
670.259	86.19
670.462	89.19
670.665	90.19
670.867	73.19
671.07	64.19
671.272	89.19
671.475	76.19
671.677	79.19
671.88	86.19
672.082	76.19
672.284	79.19
672.487	79.19
672.689	69.19
672.892	74.19
